Wavenumber,Intensity
650.4205,0.001237
652.2841,0.001757
654.1478,0.000852
656.0115,0.000478
657.8751,0.000797
659.7388,0.000649
661.6025,0.000837
663.4661,0.001840
665.3298,0.002519
667.1935,0.004030
669.0571,0.003138
670.9208,0.000817
672.7845,0.000983
674.6481,0.001925
676.5118,0.001884
678.3755,0.001311
680.2392,0.001424
682.1028,0.000785
683.9665,0.000597
685.8302,0.001545
687.6938,0.001445
689.5575,0.000797
691.4212,0.000814
693.2848,0.001035
695.1485,0.001539
697.0122,0.001933
698.8758,0.001310
700.7395,0.000375
702.6032,0.000347
704.4669,0.000738
706.3305,0.001013
708.1942,0.000548
710.0579,0.000257
711.9215,0.000537
713.7852,0.000246
715.6489,0.000706
717.5125,0.001032
719.3762,0.000868
721.2399,0.000998
723.1035,0.000826
724.9672,0.000424
726.8309,0.000667
728.6945,0.001011
730.5582,0.000727
732.4219,0.000445
734.2856,0.000528
736.1492,0.000825
738.0129,0.001082
739.8766,0.000816
741.7402,0.000625
743.6039,0.000711
745.4676,0.000630
747.3312,0.000354
749.1949,0.000171
751.0586,0.000317
752.9222,0.000806
754.7859,0.000917
756.6496,0.000770
758.5132,0.000886
760.3769,0.001022
762.2406,0.000817
764.1043,0.000893
765.9679,0.001095
767.8316,0.000823
769.6953,0.000415
771.5589,0.000591
773.4226,0.001126
775.2863,0.001195
777.1499,0.001188
779.0136,0.001458
780.8773,0.001449
782.7409,0.001146
784.6046,0.001019
786.4683,0.001035
788.3320,0.001044
790.1956,0.001088
792.0593,0.001226
793.9230,0.001503
795.7866,0.001608
797.6503,0.001614
799.5140,0.001650
801.3776,0.001313
803.2413,0.001170
805.1050,0.001453
806.9686,0.001516
808.8323,0.001468
810.6960,0.001184
812.5596,0.000891
814.4233,0.000915
816.2870,0.001021
818.1507,0.000914
820.0143,0.000747
821.8780,0.000563
823.7417,0.000489
825.6053,0.000726
827.4690,0.000906
829.3327,0.000954
831.1963,0.000869
833.0600,0.000575
834.9237,0.000428
836.7873,0.000519
838.6510,0.000480
840.5147,0.000556
842.3784,0.000718
844.2420,0.000522
846.1057,0.000475
847.9694,0.000646
849.8330,0.000679
851.6967,0.000768
853.5604,0.000696
855.4240,0.000534
857.2877,0.000535
859.1514,0.000466
861.0150,0.000366
862.8787,0.000407
864.7424,0.000627
866.6060,0.000612
868.4697,0.000541
870.3334,0.000708
872.1971,0.000731
874.0607,0.000633
875.9244,0.000803
877.7881,0.001027
879.6517,0.000884
881.5154,0.000605
883.3791,0.000682
885.2427,0.000845
887.1064,0.000714
888.9701,0.000661
890.8337,0.000893
892.6974,0.000927
894.5611,0.000924
896.4247,0.001065
898.2884,0.000994
900.1521,0.000957
902.0158,0.001032
903.8794,0.001085
905.7431,0.001122
907.6068,0.001132
909.4704,0.001072
911.3341,0.001057
913.1978,0.001085
915.0614,0.001140
916.9251,0.001143
918.7888,0.001147
920.6524,0.001314
922.5161,0.001407
924.3798,0.001362
926.2435,0.001342
928.1071,0.001365
929.9708,0.001427
931.8345,0.001486
933.6981,0.001487
935.5618,0.001453
937.4255,0.001434
939.2891,0.001462
941.1528,0.001624
943.0165,0.001852
944.8801,0.001920
946.7438,0.001903
948.6075,0.002021
950.4711,0.002050
952.3348,0.001877
954.1985,0.001762
956.0622,0.001793
957.9258,0.001769
959.7895,0.001628
961.6532,0.001552
963.5168,0.001620
965.3805,0.001703
967.2442,0.001677
969.1078,0.001636
970.9715,0.001713
972.8352,0.001755
974.6988,0.001638
976.5625,0.001649
978.4262,0.001796
980.2899,0.001842
982.1535,0.001803
984.0172,0.001839
985.8809,0.001983
987.7445,0.002034
989.6082,0.002033
991.4719,0.002078
993.3355,0.002102
995.1992,0.002237
997.0629,0.002453
998.9265,0.002563
1000.7902,0.002601
1002.6539,0.002571
1004.5175,0.002555
1006.3812,0.002598
1008.2449,0.002690
1010.1086,0.002815
1011.9722,0.002945
1013.8359,0.003011
1015.6996,0.003101
1017.5632,0.003233
1019.4269,0.003276
1021.2906,0.003342
1023.1542,0.003406
1025.0179,0.003457
1026.8816,0.003598
1028.7452,0.003697
1030.6089,0.003708
1032.4726,0.003744
1034.3362,0.003846
1036.1999,0.003946
1038.0636,0.003995
1039.9273,0.004068
1041.7909,0.004206
1043.6546,0.004325
1045.5183,0.004360
1047.3819,0.004360
1049.2456,0.004414
1051.1093,0.004450
1052.9729,0.004356
1054.8366,0.004285
1056.7003,0.004286
1058.5639,0.004206
1060.4276,0.004207
1062.2913,0.004404
1064.1550,0.004565
1066.0186,0.004569
1067.8823,0.004592
1069.7460,0.004662
1071.6096,0.004690
1073.4733,0.004650
1075.3370,0.004552
1077.2006,0.004497
1079.0643,0.004432
1080.9280,0.004362
1082.7916,0.004314
1084.6553,0.004251
1086.5190,0.004219
1088.3826,0.004174
1090.2463,0.004128
1092.1100,0.004079
1093.9737,0.004030
1095.8373,0.004006
1097.7010,0.003865
1099.5647,0.003700
1101.4283,0.003693
1103.2920,0.003626
1105.1557,0.003467
1107.0193,0.003331
1108.8830,0.003188
1110.7467,0.003092
1112.6103,0.003046
1114.4740,0.002970
1116.3377,0.002969
1118.2014,0.003003
1120.0650,0.002877
1121.9287,0.002744
1123.7924,0.002780
1125.6560,0.002797
1127.5197,0.002654
1129.3834,0.002467
1131.2470,0.002348
1133.1107,0.002249
1134.9744,0.002162
1136.8380,0.002150
1138.7017,0.002170
1140.5654,0.002081
1142.4290,0.001941
1144.2927,0.001860
1146.1564,0.001808
1148.0201,0.001769
1149.8837,0.001701
1151.7474,0.001638
1153.6111,0.001583
1155.4747,0.001545
1157.3384,0.001566
1159.2021,0.001595
1161.0657,0.001590
1162.9294,0.001522
1164.7931,0.001462
1166.6567,0.001506
1168.5204,0.001629
1170.3841,0.001594
1172.2477,0.001374
1174.1114,0.001295
1175.9751,0.001344
1177.8388,0.001330
1179.7024,0.001267
1181.5661,0.001182
1183.4298,0.001170
1185.2934,0.001170
1187.1571,0.001142
1189.0208,0.001163
1190.8844,0.001169
1192.7481,0.001116
1194.6118,0.001078
1196.4754,0.001091
1198.3391,0.001055
1200.2028,0.001018
1202.0665,0.000993
1203.9301,0.000967
1205.7938,0.000975
1207.6575,0.000964
1209.5211,0.000899
1211.3848,0.000820
1213.2485,0.000825
1215.1121,0.000845
1216.9758,0.000782
1218.8395,0.000718
1220.7031,0.000708
1222.5668,0.000737
1224.4305,0.000738
1226.2941,0.000712
1228.1578,0.000651
1230.0215,0.000557
1231.8852,0.000568
1233.7488,0.000627
1235.6125,0.000581
1237.4762,0.000538
1239.3398,0.000571
1241.2035,0.000577
1243.0672,0.000495
1244.9308,0.000394
1246.7945,0.000380
1248.6582,0.000328
1250.5218,0.000261
1252.3855,0.000284
1254.2492,0.000335
1256.1129,0.000399
1257.9765,0.000418
1259.8402,0.000379
1261.7039,0.000427
1263.5675,0.000488
1265.4312,0.000434
1267.2949,0.000377
1269.1585,0.000356
1271.0222,0.000303
1272.8859,0.000193
1274.7495,0.000139
1276.6132,0.000135
1278.4769,0.000182
1280.3405,0.000241
1282.2042,0.000235
1284.0679,0.000166
1285.9316,0.000093
1287.7952,0.000066
1289.6589,0.000076
1291.5226,0.000099
1293.3862,0.000152
1295.2499,0.000178
1297.1136,0.000162
1298.9772,0.000174
1300.8409,0.000219
1302.7046,0.000198
1304.5682,0.000137
1306.4319,0.000196
1308.2956,0.000218
1310.1592,0.000107
1312.0229,0.000102
1313.8866,0.000239
1315.7503,0.000256
1317.6139,0.000160
1319.4776,0.000179
1321.3413,0.000204
1323.2049,0.000127
1325.0686,0.000099
1326.9323,0.000129
1328.7959,0.000121
1330.6596,0.000149
1332.5233,0.000184
1334.3869,0.000109
1336.2506,-0.000014
1338.1143,-0.000098
1339.9780,-0.000077
1341.8416,0.000101
1343.7053,0.000151
1345.5690,0.000058
1347.4326,0.000041
1349.2963,0.000045
1351.1600,0.000043
1353.0236,0.000021
1354.8873,0.000068
1356.7510,0.000137
1358.6146,0.000131
1360.4783,-0.000037
1362.3420,-0.000154
1364.2056,0.000026
1366.0693,0.000182
1367.9330,0.000126
1369.7967,0.000135
1371.6603,-0.000007
1373.5240,-0.000217
1375.3877,-0.000075
1377.2513,0.000088
1379.1150,0.000004
1380.9787,0.000044
1382.8423,0.000058
1384.7060,-0.000049
1386.5697,-0.000322
1388.4333,-0.000134
1390.2970,0.000160
1392.1607,-0.000041
1394.0244,-0.000306
1395.8880,-0.000159
1397.7517,-0.000045
1399.6154,0.000048
1401.4790,0.000326
1403.3427,0.000049
1405.2064,-0.000017
1407.0700,0.000216
1408.9337,0.000248
1410.7974,0.000112
1412.6610,0.000078
1414.5247,-0.000009
1416.3884,-0.000359
1418.2520,-0.000599
1420.1157,0.000007
1421.9794,0.000253
1423.8431,-0.000100
1425.7067,0.000065
1427.5704,0.000002
1429.4341,-0.000195
1431.2977,-0.000022
1433.1614,-0.000132
1435.0251,-0.000516
1436.8887,-0.000364
1438.7524,0.000309
1440.6161,0.000209
1442.4797,0.000047
1444.3434,-0.000089
1446.2071,-0.000293
1448.0707,-0.000205
1449.9344,0.000022
1451.7981,-0.000097
1453.6618,-0.000558
1455.5254,-0.001230
1457.3891,-0.000927
1459.2528,0.000304
1461.1164,0.000131
1462.9801,-0.000265
1464.8438,-0.000197
1466.7074,0.000362
1468.5711,-0.000027
1470.4348,-0.000768
1472.2984,-0.001148
1474.1621,-0.000399
1476.0258,-0.000103
1477.8895,-0.000036
1479.7531,-0.000059
1481.6168,0.000001
1483.4805,0.000166
1485.3441,-0.000188
1487.2078,-0.000696
1489.0715,-0.000658
1490.9351,-0.000186
1492.7988,0.000177
1494.6625,-0.000351
1496.5261,-0.000721
1498.3898,-0.000262
1500.2535,0.000121
1502.1171,-0.000010
1503.9808,-0.000978
1505.8445,-0.002127
1507.7082,-0.000961
1509.5718,0.000026
1511.4355,-0.000251
1513.2992,-0.000308
1515.1628,-0.000557
1517.0265,-0.000828
1518.8902,-0.000789
1520.7538,-0.001371
1522.6175,-0.000958
1524.4812,-0.000541
1526.3448,-0.000561
1528.2085,-0.000111
1530.0722,-0.000280
1531.9359,-0.000651
1533.7995,-0.000550
1535.6632,0.000010
1537.5269,-0.001056
1539.3905,-0.002227
1541.2542,-0.001056
1543.1179,-0.000311
1544.9815,-0.000174
1546.8452,0.000112
1548.7089,-0.000088
1550.5725,-0.000253
1552.4362,-0.000260
1554.2999,-0.000841
1556.1635,-0.001449
1558.0272,-0.002823
1559.8909,-0.001167
1561.7546,0.000593
1563.6182,0.000055
1565.4819,-0.000188
1567.3456,-0.000258
1569.2092,-0.000454
1571.0729,0.000270
1572.9366,0.000148
1574.8002,-0.000696
1576.6639,-0.000394
1578.5276,0.000318
1580.3912,0.000136
1582.2549,0.000200
1584.1186,0.000184
1585.9822,0.000021
1587.8459,0.000134
1589.7096,0.000366
1591.5733,0.000449
1593.4369,0.000213
1595.3006,0.000054
1597.1643,0.000130
1599.0279,0.000115
1600.8916,-0.000027
1602.7553,0.000086
1604.6189,0.000125
1606.4826,0.000112
1608.3463,0.000230
1610.2099,0.000372
1612.0736,0.000128
1613.9373,-0.000242
1615.8010,-0.000798
1617.6646,-0.000262
1619.5283,0.000153
1621.3920,-0.000318
1623.2556,-0.000221
1625.1193,0.000451
1626.9830,0.000186
1628.8466,0.000095
1630.7103,0.000169
1632.5740,-0.000468
1634.4376,-0.001063
1636.3013,-0.000421
1638.1650,0.000454
1640.0286,0.000367
1641.8923,0.000169
1643.7560,-0.000258
1645.6197,-0.000756
1647.4833,-0.000405
1649.3470,-0.000107
1651.2107,-0.001415
1653.0743,-0.002181
1654.9380,0.000477
1656.8017,0.000715
1658.6653,0.000238
1660.5290,0.000003
1662.3927,-0.000066
1664.2563,0.000284
1666.1200,-0.000059
1667.9837,-0.000693
1669.8474,-0.000594
1671.7110,-0.000059
1673.5747,-0.000350
1675.4384,-0.000221
1677.3020,0.000656
1679.1657,0.000154
1681.0294,-0.000623
1682.8930,-0.001277
1684.7567,-0.000711
1686.6204,0.000468
1688.4840,-0.000009
1690.3477,0.000003
1692.2114,-0.000100
1694.0750,-0.000689
1695.9387,-0.001176
1697.8024,-0.000942
1699.6661,-0.001744
1701.5297,-0.000412
1703.3934,-0.000024
1705.2571,-0.000631
1707.1207,-0.000109
1708.9844,0.000217
1710.8481,0.000049
1712.7117,-0.000321
1714.5754,-0.000919
1716.4391,-0.001278
1718.3027,-0.000621
1720.1664,0.000367
1722.0301,0.000073
1723.8937,-0.000092
1725.7574,0.000007
1727.6211,-0.000044
1729.4848,-0.000254
1731.3484,-0.000682
1733.2121,-0.001236
1735.0758,-0.000106
1736.9394,0.000440
1738.8031,-0.000541
1740.6668,-0.000279
1742.5304,0.000008
1744.3941,-0.000017
1746.2578,-0.000227
1748.1214,-0.000514
1749.9851,-0.000375
1751.8488,0.000092
1753.7125,0.000262
1755.5761,-0.000145
1757.4398,-0.000024
1759.3035,0.000065
1761.1671,-0.000251
1763.0308,0.000147
1764.8945,0.000231
1766.7581,-0.000296
1768.6218,-0.000474
1770.4855,-0.000583
1772.3491,-0.000750
1774.2128,-0.000155
1776.0765,-0.000091
1777.9401,-0.000047
1779.8038,-0.000120
1781.6675,0.000058
1783.5312,0.000123
1785.3948,0.000103
1787.2585,0.000124
1789.1222,-0.000184
1790.9858,-0.000463
1792.8495,-0.000259
1794.7132,0.000105
1796.5768,-0.000098
1798.4405,-0.000205
1800.3042,-0.000142
1802.1678,0.000011
1804.0315,0.000156
1805.8952,0.000371
1807.7589,0.000207
1809.6225,-0.000182
1811.4862,-0.000088
1813.3499,0.000218
1815.2135,0.000098
1817.0772,-0.000089
1818.9409,0.000097
1820.8045,0.000103
1822.6682,-0.000033
1824.5319,-0.000136
1826.3955,-0.000203
1828.2592,-0.000289
1830.1229,-0.000087
1831.9865,0.000201
1833.8502,-0.000056
1835.7139,0.000049
1837.5776,0.000174
1839.4412,-0.000028
1841.3049,-0.000360
1843.1686,-0.000598
1845.0322,-0.000283
1846.8959,0.000216
1848.7596,0.000137
1850.6232,0.000028
1852.4869,-0.000089
1854.3506,-0.000098
1856.2142,-0.000196
1858.0779,0.000077
1859.9416,0.000238
1861.8052,0.000243
1863.6689,0.000211
1865.5326,0.000005
1867.3963,-0.000580
1869.2599,-0.000629
1871.1236,-0.000023
1872.9873,0.000195
1874.8509,0.000232
1876.7146,0.000168
1878.5783,0.000072
1880.4419,0.000156
1882.3056,0.000054
1884.1693,-0.000020
1886.0329,-0.000001
1887.8966,-0.000062
1889.7603,-0.000087
1891.6240,0.000174
1893.4876,0.000014
1895.3513,0.000214
1897.2150,0.000426
1899.0786,0.000335
1900.9423,0.000261
1902.8060,0.000102
1904.6696,-0.000024
1906.5333,-0.000108
1908.3970,0.000107
1910.2606,0.000337
1912.1243,-0.000032
1913.9880,-0.000359
1915.8516,-0.000168
1917.7153,-0.000163
1919.5790,-0.000131
1921.4427,-0.000221
1923.3063,-0.000314
1925.1700,0.000045
1927.0337,0.000288
1928.8973,0.000531
1930.7610,0.000297
1932.6247,0.000028
1934.4883,-0.000132
1936.3520,-0.000196
1938.2157,-0.000080
1940.0793,-0.000288
1941.9430,-0.000373
1943.8067,-0.000410
1945.6704,-0.000758
1947.5340,-0.000381
1949.3977,-0.000095
1951.2614,0.000037
1953.1250,0.000027
1954.9887,-0.000265
1956.8524,-0.000349
1958.7160,-0.000035
1960.5797,0.000032
1962.4434,0.000482
1964.3070,0.000330
1966.1707,-0.001085
1968.0344,-0.001057
1969.8980,-0.000284
1971.7617,-0.000488
1973.6254,-0.000693
1975.4891,-0.000651
1977.3527,-0.000392
1979.2164,-0.000005
1981.0801,0.000514
1982.9437,0.000261
1984.8074,-0.000092
1986.6711,-0.000138
1988.5347,-0.000229
1990.3984,-0.000903
1992.2621,-0.000556
1994.1257,0.000041
1995.9894,0.000423
1997.8531,-0.000039
1999.7167,-0.000768
2001.5804,-0.000491
2003.4441,-0.000399
2005.3078,-0.000902
2007.1714,-0.000719
2009.0351,-0.000197
2010.8988,-0.000142
2012.7624,-0.000573
2014.6261,-0.001311
2016.4898,-0.000781
2018.3534,-0.000002
2020.2171,0.000280
2022.0808,0.000346
2023.9444,0.000596
2025.8081,0.000471
2027.6718,0.000245
2029.5355,0.000151
2031.3991,-0.000008
2033.2628,-0.000181
2035.1265,-0.000335
2036.9901,0.000174
2038.8538,-0.000066
2040.7175,-0.000699
2042.5811,-0.000096
2044.4448,0.000044
2046.3085,-0.000321
2048.1721,0.000355
2050.0358,0.000486
2051.8995,0.000281
2053.7631,0.000252
2055.6268,0.000261
2057.4905,-0.000194
2059.3542,-0.000210
2061.2178,0.000197
2063.0815,0.000032
2064.9452,-0.000032
2066.8088,0.000357
2068.6725,0.000528
2070.5362,0.000033
2072.3998,-0.000220
2074.2635,0.000216
2076.1272,0.000384
2077.9908,0.000661
2079.8545,0.000555
2081.7182,0.000015
2083.5819,-0.000435
2085.4455,-0.000536
2087.3092,-0.000159
2089.1729,0.000079
2091.0365,-0.000182
2092.9002,-0.000292
2094.7639,0.000024
2096.6275,0.000314
2098.4912,0.000362
2100.3549,0.000229
2102.2185,0.000136
2104.0822,0.000132
2105.9459,0.000130
2107.8095,0.000229
2109.6732,-0.000072
2111.5369,-0.000078
2113.4006,-0.000046
2115.2642,-0.000206
2117.1279,0.000145
2118.9916,0.000395
2120.8552,0.000081
2122.7189,0.000023
2124.5826,0.000242
2126.4462,0.000387
2128.3099,0.000282
2130.1736,-0.000236
2132.0372,-0.000230
2133.9009,-0.000197
2135.7646,-0.000590
2137.6282,-0.000732
2139.4919,-0.000879
2141.3556,-0.000524
2143.2193,-0.000232
2145.0829,-0.000695
2146.9466,-0.000513
2148.8103,-0.000270
2150.6739,-0.000699
2152.5376,-0.001058
2154.4013,-0.000800
2156.2649,-0.000777
2158.1286,-0.000731
2159.9923,0.000357
2161.8559,0.000095
2163.7196,-0.000589
2165.5833,-0.000692
2167.4470,-0.000081
2169.3106,-0.000070
2171.1743,-0.000315
2173.0380,0.000044
2174.9016,-0.000016
2176.7653,-0.000133
2178.6290,0.000215
2180.4926,0.000328
2182.3563,0.000426
2184.2200,0.000457
2186.0836,0.000045
2187.9473,-0.000851
2189.8110,-0.000474
2191.6746,0.000382
2193.5383,0.000262
2195.4020,0.000031
2197.2657,-0.000086
2199.1293,-0.000069
2200.9930,-0.000019
2202.8567,-0.000371
2204.7203,-0.000814
2206.5840,-0.000683
2208.4477,0.000158
2210.3113,0.000531
2212.1750,0.000058
2214.0387,-0.000044
2215.9023,0.000299
2217.7660,-0.000333
2219.6297,-0.000247
2221.4934,0.000409
2223.3570,0.000256
2225.2207,-0.000036
2227.0844,-0.000062
2228.9480,0.000018
2230.8117,-0.000145
2232.6754,-0.000067
2234.5390,0.000019
2236.4027,0.000078
2238.2664,0.000181
2240.1300,0.000450
2241.9937,0.000251
2243.8574,0.000235
2245.7210,0.000745
2247.5847,-0.000164
2249.4484,-0.000538
2251.3121,0.000051
2253.1757,0.000131
2255.0394,-0.000225
2256.9031,-0.000062
2258.7667,0.000297
2260.6304,0.000191
2262.4941,-0.000018
2264.3577,-0.000405
2266.2214,-0.000482
2268.0851,0.000070
2269.9487,0.000062
2271.8124,-0.000022
2273.6761,0.000388
2275.5397,0.000490
2277.4034,0.000469
2279.2671,0.000310
2281.1308,0.000095
2282.9944,0.000091
2284.8581,0.000315
2286.7218,0.000452
2288.5854,0.000416
2290.4491,0.000305
2292.3128,0.000272
2294.1764,0.000384
2296.0401,0.000252
2297.9038,0.000311
2299.7674,0.000759
2301.6311,0.000745
2303.4948,0.000517
2305.3585,0.000729
2307.2221,0.000983
2309.0858,0.001078
2310.9495,0.001221
2312.8131,0.001727
2314.6768,0.001990
2316.5405,0.001829
2318.4041,0.001984
2320.2678,0.002414
2322.1315,0.002698
2323.9951,0.002808
2325.8588,0.002850
2327.7225,0.002912
2329.5861,0.003032
2331.4498,0.002692
2333.3135,0.002712
2335.1772,0.003271
2337.0408,0.003452
2338.9045,0.003365
2340.7682,0.003545
2342.6318,0.003757
2344.4955,0.003492
2346.3592,0.003001
2348.2228,0.002454
2350.0865,0.002091
2351.9502,0.002613
2353.8138,0.003350
2355.6775,0.003532
2357.5412,0.004117
2359.4049,0.004770
2361.2685,0.004421
2363.1322,0.003804
2364.9959,0.004147
2366.8595,0.004585
2368.7232,0.003975
2370.5869,0.003570
2372.4505,0.003404
2374.3142,0.002959
2376.1779,0.002177
2378.0415,0.001536
2379.9052,0.001119
2381.7689,0.000775
2383.6325,0.000554
2385.4962,0.000249
2387.3599,0.000225
2389.2236,0.000292
2391.0872,-0.000046
2392.9509,-0.000439
2394.8146,-0.000481
2396.6782,-0.000412
2398.5419,0.000033
2400.4056,0.000303
2402.2692,-0.000014
2404.1329,-0.000201
2405.9966,-0.000190
2407.8602,0.000196
2409.7239,0.000290
2411.5876,0.000000
2413.4512,-0.000218
2415.3149,-0.000238
2417.1786,0.000008
2419.0423,0.000068
2420.9059,0.000055
2422.7696,-0.000086
2424.6333,-0.000211
2426.4969,-0.000024
2428.3606,-0.000043
2430.2243,-0.000169
2432.0879,0.000112
2433.9516,0.000349
2435.8153,0.000528
2437.6789,0.000226
2439.5426,-0.000372
2441.4063,-0.000586
2443.2700,-0.000193
2445.1336,0.000182
2446.9973,0.000304
2448.8610,0.000222
2450.7246,0.000127
2452.5883,0.000006
2454.4520,-0.000091
2456.3156,-0.000068
2458.1793,-0.000171
2460.0430,-0.000206
2461.9066,-0.000124
2463.7703,0.000146
2465.6340,0.000256
2467.4976,0.000165
2469.3613,0.000330
2471.2250,0.000107
2473.0887,-0.000335
2474.9523,-0.000317
2476.8160,-0.000208
2478.6797,-0.000283
2480.5433,-0.000419
2482.4070,-0.000331
2484.2707,-0.000106
2486.1343,-0.000097
2487.9980,-0.000331
2489.8617,-0.000331
2491.7253,-0.000205
2493.5890,-0.000148
2495.4527,-0.000341
2497.3164,-0.000420
2499.1800,0.000119
2501.0437,0.000445
2502.9074,0.000247
2504.7710,0.000352
2506.6347,0.000301
2508.4984,-0.000102
2510.3620,-0.000021
2512.2257,0.000334
2514.0894,0.000315
2515.9530,-0.000017
2517.8167,-0.000161
2519.6804,0.000194
2521.5440,0.000250
2523.4077,-0.000162
2525.2714,-0.000565
2527.1351,-0.000431
2528.9987,-0.000007
2530.8624,0.000163
2532.7261,0.000313
2534.5897,0.000361
2536.4534,0.000459
2538.3171,0.000741
2540.1807,0.000586
2542.0444,0.000470
2543.9081,0.000128
2545.7717,-0.000459
2547.6354,-0.000403
2549.4991,-0.000265
2551.3627,-0.000178
2553.2264,-0.000091
2555.0901,-0.000282
2556.9538,-0.000329
2558.8174,0.000169
2560.6811,0.000388
2562.5448,0.000414
2564.4084,0.000230
2566.2721,0.000122
2568.1358,0.000270
2569.9994,-0.000054
2571.8631,-0.000148
2573.7268,0.000292
2575.5904,0.000368
2577.4541,0.000084
2579.3178,-0.000231
2581.1815,-0.000354
2583.0451,-0.000306
2584.9088,-0.000146
2586.7725,0.000025
2588.6361,0.000170
2590.4998,0.000248
2592.3635,0.000398
2594.2271,0.000483
2596.0908,0.000555
2597.9545,0.000310
2599.8181,-0.000115
2601.6818,-0.000211
2603.5455,-0.000099
2605.4091,0.000016
2607.2728,0.000098
2609.1365,0.000113
2611.0002,0.000201
2612.8638,0.000024
2614.7275,-0.000078
2616.5912,-0.000049
2618.4548,-0.000310
2620.3185,-0.000231
2622.1822,0.000059
2624.0458,0.000272
2625.9095,0.000039
2627.7732,-0.000392
2629.6368,-0.000207
2631.5005,0.000243
2633.3642,0.000353
2635.2279,0.000244
2637.0915,0.000010
2638.9552,-0.000061
2640.8189,0.000024
2642.6825,0.000059
2644.5462,0.000153
2646.4099,0.000132
2648.2735,0.000087
2650.1372,0.000093
2652.0009,0.000165
2653.8645,0.000126
2655.7282,-0.000058
2657.5919,-0.000167
2659.4555,-0.000060
2661.3192,0.000022
2663.1829,-0.000019
2665.0466,0.000028
2666.9102,-0.000074
2668.7739,-0.000249
2670.6376,-0.000106
2672.5012,-0.000006
2674.3649,0.000138
2676.2286,0.000045
2678.0922,0.000006
2679.9559,-0.000126
2681.8196,-0.000208
2683.6832,-0.000005
2685.5469,-0.000029
2687.4106,-0.000212
2689.2742,-0.000290
2691.1379,-0.000215
2693.0016,-0.000232
2694.8653,-0.000165
2696.7289,-0.000024
2698.5926,-0.000209
2700.4563,-0.000272
2702.3199,-0.000181
2704.1836,0.000012
2706.0473,-0.000080
2707.9109,-0.000484
2709.7746,-0.000540
2711.6383,-0.000303
2713.5019,-0.000045
2715.3656,-0.000067
2717.2293,-0.000244
2719.0930,-0.000117
2720.9566,0.000052
2722.8203,-0.000100
2724.6840,-0.000132
2726.5476,-0.000111
2728.4113,-0.000260
2730.2750,-0.000104
2732.1386,0.000149
2734.0023,0.000110
2735.8660,-0.000127
2737.7296,-0.000269
2739.5933,-0.000258
2741.4570,-0.000314
2743.3206,-0.000475
2745.1843,-0.000485
2747.0480,-0.000296
2748.9117,0.000010
2750.7753,-0.000034
2752.6390,-0.000196
2754.5027,-0.000131
2756.3663,-0.000226
2758.2300,-0.000280
2760.0937,-0.000204
2761.9573,-0.000252
2763.8210,-0.000195
2765.6847,-0.000201
2767.5483,-0.000363
2769.4120,-0.000192
2771.2757,-0.000176
2773.1394,-0.000328
2775.0030,-0.000327
2776.8667,-0.000200
2778.7304,-0.000307
2780.5940,-0.000271
2782.4577,0.000031
2784.3214,0.000171
2786.1850,0.000122
2788.0487,-0.000149
2789.9124,-0.000271
2791.7760,0.000002
2793.6397,-0.000155
2795.5034,-0.000413
2797.3670,-0.000210
2799.2307,-0.000258
2801.0944,-0.000235
2802.9581,0.000104
2804.8217,-0.000084
2806.6854,-0.000479
2808.5491,-0.000204
2810.4127,-0.000042
2812.2764,-0.000043
2814.1401,-0.000082
2816.0037,-0.000384
2817.8674,-0.000472
2819.7311,-0.000489
2821.5947,-0.000496
2823.4584,-0.000203
2825.3221,-0.000196
2827.1857,-0.000218
2829.0494,-0.000045
2830.9131,-0.000216
2832.7768,-0.000515
2834.6404,-0.000471
2836.5041,-0.000423
2838.3678,-0.000469
2840.2314,-0.000564
2842.0951,-0.000587
2843.9588,-0.000555
2845.8224,-0.000483
2847.6861,-0.000467
2849.5498,-0.000586
2851.4134,-0.000684
2853.2771,-0.000283
2855.1408,-0.000169
2857.0045,-0.000631
2858.8681,-0.000692
2860.7318,-0.000542
2862.5955,-0.000454
2864.4591,-0.000288
2866.3228,-0.000425
2868.1865,-0.000598
2870.0501,-0.000456
2871.9138,-0.000254
2873.7775,-0.000141
2875.6411,-0.000180
2877.5048,-0.000249
2879.3685,-0.000315
2881.2321,-0.000337
2883.0958,-0.000063
2884.9595,-0.000128
2886.8232,-0.000335
2888.6868,-0.000313
2890.5505,-0.000372
2892.4142,-0.000517
2894.2778,-0.000639
2896.1415,-0.000355
2898.0052,-0.000030
2899.8688,-0.000216
2901.7325,-0.000330
2903.5962,-0.000599
2905.4598,-0.000755
2907.3235,-0.000429
2909.1872,-0.000257
2911.0509,-0.000375
2912.9145,-0.000525
2914.7782,-0.000680
2916.6419,-0.000678
2918.5055,-0.000414
2920.3692,-0.000354
2922.2329,-0.000495
2924.0965,-0.000572
2925.9602,-0.000436
2927.8239,-0.000076
2929.6875,-0.000005
2931.5512,-0.000411
2933.4149,-0.000744
2935.2785,-0.000453
2937.1422,-0.000351
2939.0059,-0.000493
2940.8696,-0.000182
2942.7332,0.000328
2944.5969,-0.000007
2946.4606,-0.000729
2948.3242,-0.000661
2950.1879,-0.000448
2952.0516,-0.000592
2953.9152,-0.000482
2955.7789,-0.000075
2957.6426,-0.000102
2959.5062,-0.000569
2961.3699,-0.000785
2963.2336,-0.000686
2965.0972,-0.000755
2966.9609,-0.000488
2968.8246,0.000075
2970.6883,-0.000172
2972.5519,-0.000203
2974.4156,-0.000059
2976.2793,-0.000693
2978.1429,-0.000590
2980.0066,-0.000033
2981.8703,-0.000136
2983.7339,-0.000303
2985.5976,-0.000242
2987.4613,-0.000278
2989.3249,-0.000366
2991.1886,-0.000334
2993.0523,-0.000573
2994.9160,-0.000820
2996.7796,-0.000729
2998.6433,-0.000598
3000.5070,-0.000587
3002.3706,-0.000696
3004.2343,-0.000538
3006.0980,-0.000190
3007.9616,-0.000366
3009.8253,-0.000590
3011.6890,-0.000506
3013.5526,-0.000624
3015.4163,-0.001076
3017.2800,-0.001492
3019.1436,-0.001264
3021.0073,-0.000592
3022.8710,-0.000429
3024.7347,-0.000450
3026.5983,-0.000313
3028.4620,-0.000123
3030.3257,-0.000139
3032.1893,-0.000460
3034.0530,-0.000523
3035.9167,-0.000157
3037.7803,-0.000362
3039.6440,-0.000853
3041.5077,-0.000954
3043.3713,-0.000527
3045.2350,-0.000125
3047.0987,-0.000611
3048.9624,-0.000942
3050.8260,-0.000624
3052.6897,-0.000647
3054.5534,-0.000990
3056.4170,-0.000977
3058.2807,-0.000888
3060.1444,-0.000937
3062.0080,-0.000928
3063.8717,-0.000735
3065.7354,-0.000965
3067.5990,-0.001645
3069.4627,-0.001428
3071.3264,-0.000881
3073.1900,-0.000697
3075.0537,-0.000666
3076.9174,-0.000915
3078.7811,-0.001021
3080.6447,-0.000818
3082.5084,-0.000689
3084.3721,-0.000661
3086.2357,-0.000949
3088.0994,-0.000931
3089.9631,-0.000511
3091.8267,-0.000215
3093.6904,-0.000287
3095.5541,-0.000408
3097.4177,-0.000658
3099.2814,-0.001032
3101.1451,-0.000750
3103.0087,-0.000461
3104.8724,-0.000920
3106.7361,-0.000795
3108.5998,-0.000206
3110.4634,-0.000363
3112.3271,-0.000862
3114.1908,-0.001165
3116.0544,-0.001058
3117.9181,-0.000863
3119.7818,-0.001300
3121.6454,-0.001432
3123.5091,-0.000909
3125.3728,-0.000319
3127.2364,-0.000071
3129.1001,-0.000832
3130.9638,-0.001384
3132.8275,-0.001008
3134.6911,-0.000958
3136.5548,-0.001073
3138.4185,-0.001027
3140.2821,-0.000764
3142.1458,-0.000520
3144.0095,-0.000652
3145.8731,-0.000640
3147.7368,-0.000559
3149.6005,-0.000927
3151.4641,-0.000853
3153.3278,-0.000809
3155.1915,-0.000812
3157.0551,-0.000267
3158.9188,-0.000301
3160.7825,-0.000861
3162.6462,-0.000807
3164.5098,-0.000676
3166.3735,-0.000889
3168.2372,-0.000724
3170.1008,-0.000503
3171.9645,-0.000610
3173.8282,-0.000475
3175.6918,-0.000441
3177.5555,-0.001199
3179.4192,-0.001534
3181.2828,-0.001000
3183.1465,-0.000535
3185.0102,-0.000570
3186.8739,-0.001020
3188.7375,-0.000932
3190.6012,-0.000744
3192.4649,-0.001157
3194.3285,-0.000979
3196.1922,-0.000554
3198.0559,-0.000765
3199.9195,-0.000758
3201.7832,-0.000374
3203.6469,-0.000846
3205.5105,-0.001808
3207.3742,-0.001713
3209.2379,-0.000748
3211.1015,-0.000338
3212.9652,-0.001066
3214.8289,-0.001003
3216.6926,-0.000334
3218.5562,-0.001119
3220.4199,-0.001500
3222.2836,-0.000755
3224.1472,-0.000785
3226.0109,-0.001200
3227.8746,-0.001466
3229.7382,-0.001812
3231.6019,-0.002003
3233.4656,-0.001618
3235.3292,-0.000933
3237.1929,-0.000715
3239.0566,-0.000928
3240.9202,-0.000920
3242.7839,-0.001144
3244.6476,-0.001435
3246.5113,-0.001622
3248.3749,-0.001519
3250.2386,-0.001464
3252.1023,-0.001539
3253.9659,-0.001457
3255.8296,-0.001140
3257.6933,-0.001394
3259.5569,-0.001809
3261.4206,-0.001491
3263.2843,-0.000652
3265.1479,-0.000015
3267.0116,-0.000203
3268.8753,-0.000659
3270.7390,-0.000815
3272.6026,-0.001237
3274.4663,-0.001606
3276.3300,-0.001395
3278.1936,-0.001328
3280.0573,-0.000887
3281.9210,-0.000303
3283.7846,-0.000958
3285.6483,-0.001642
3287.5120,-0.001574
3289.3756,-0.001150
3291.2393,-0.001526
3293.1030,-0.001311
3294.9666,-0.000998
3296.8303,-0.001536
3298.6940,-0.001622
3300.5577,-0.001654
3302.4213,-0.001802
3304.2850,-0.001611
3306.1487,-0.001189
3308.0123,-0.000640
3309.8760,-0.001158
3311.7397,-0.001246
3313.6033,-0.000763
3315.4670,-0.000862
3317.3307,-0.001415
3319.1943,-0.001053
3321.0580,-0.000463
3322.9217,-0.001056
3324.7854,-0.001716
3326.6490,-0.001727
3328.5127,-0.001227
3330.3764,-0.000420
3332.2400,-0.000946
3334.1037,-0.001906
3335.9674,-0.001786
3337.8310,-0.001644
3339.6947,-0.001974
3341.5584,-0.002228
3343.4220,-0.001986
3345.2857,-0.001705
3347.1494,-0.002039
3349.0130,-0.001294
3350.8767,-0.000883
3352.7404,-0.001184
3354.6041,-0.000413
3356.4677,-0.000501
3358.3314,-0.001727
3360.1951,-0.002356
3362.0587,-0.002359
3363.9224,-0.002049
3365.7861,-0.001655
3367.6497,-0.001711
3369.5134,-0.001419
3371.3771,-0.000965
3373.2407,-0.000900
3375.1044,-0.001078
3376.9681,-0.001331
3378.8317,-0.001847
3380.6954,-0.001516
3382.5591,-0.001726
3384.4228,-0.002792
3386.2864,-0.002620
3388.1501,-0.001640
3390.0138,-0.000909
3391.8774,-0.001391
3393.7411,-0.002002
3395.6048,-0.001798
3397.4684,-0.001649
3399.3321,-0.002211
3401.1958,-0.002158
3403.0594,-0.001697
3404.9231,-0.001274
3406.7868,-0.001144
3408.6505,-0.001298
3410.5141,-0.001547
3412.3778,-0.000955
3414.2415,-0.001030
3416.1051,-0.001352
3417.9688,-0.000839
3419.8325,-0.001268
3421.6961,-0.002784
3423.5598,-0.002476
3425.4235,-0.002126
3427.2871,-0.002011
3429.1508,-0.001386
3431.0145,-0.001497
3432.8781,-0.001748
3434.7418,-0.000860
3436.6055,-0.001184
3438.4692,-0.002120
3440.3328,-0.001634
3442.1965,-0.001307
3444.0602,-0.001821
3445.9238,-0.001997
3447.7875,-0.002429
3449.6512,-0.002508
3451.5148,-0.001916
3453.3785,-0.001808
3455.2422,-0.002003
3457.1058,-0.001916
3458.9695,-0.001360
3460.8332,-0.000842
3462.6969,-0.000820
3464.5605,-0.001232
3466.4242,-0.000974
3468.2879,-0.001655
3470.1515,-0.003260
3472.0152,-0.003275
3473.8789,-0.001830
3475.7425,-0.000844
3477.6062,-0.002341
3479.4699,-0.003441
3481.3335,-0.002617
3483.1972,-0.002575
3485.0609,-0.002481
3486.9245,-0.002043
3488.7882,-0.001657
3490.6519,-0.000467
3492.5156,-0.000177
3494.3792,-0.000191
3496.2429,-0.000968
3498.1066,-0.001062
3499.9702,-0.001395
3501.8339,-0.001941
3503.6976,-0.001006
3505.5612,-0.001040
3507.4249,-0.001501
3509.2886,-0.001470
3511.1522,-0.001717
3513.0159,-0.002418
3514.8796,-0.002436
3516.7432,-0.001741
3518.6069,-0.001772
3520.4706,-0.002388
3522.3343,-0.003496
3524.1979,-0.001940
3526.0616,-0.000302
3527.9253,0.000274
3529.7889,-0.000067
3531.6526,-0.001043
3533.5163,-0.001719
3535.3799,-0.001716
3537.2436,-0.001864
3539.1073,-0.000979
3540.9709,-0.000268
3542.8346,-0.001261
3544.6983,-0.002320
3546.5620,-0.002741
3548.4256,-0.001829
3550.2893,-0.000360
3552.1530,-0.001026
3554.0166,-0.002128
3555.8803,-0.001316
3557.7440,-0.000408
3559.6076,-0.001452
3561.4713,-0.003185
3563.3350,-0.003836
3565.1986,-0.001902
3567.0623,-0.000590
3568.9260,-0.000906
3570.7896,-0.000911
3572.6533,-0.001091
3574.5170,-0.001141
3576.3807,-0.001719
3578.2443,-0.002306
3580.1080,-0.002060
3581.9717,-0.000614
3583.8353,0.000672
3585.6990,0.000567
3587.5627,-0.000044
3589.4263,-0.001089
3591.2900,-0.001372
3593.1537,-0.001251
3595.0173,-0.001242
3596.8810,-0.000354
3598.7447,-0.000312
3600.6084,-0.002403
3602.4720,-0.002568
3604.3357,-0.001643
3606.1994,-0.001661
3608.0630,-0.002345
3609.9267,-0.001748
3611.7904,-0.001322
3613.6540,-0.001946
3615.5177,-0.002914
3617.3814,-0.002249
3619.2450,-0.001294
3621.1087,-0.000809
3622.9724,-0.001635
3624.8360,-0.002430
3626.6997,-0.002201
3628.5634,-0.002555
3630.4271,-0.002265
3632.2907,-0.001043
3634.1544,-0.001886
3636.0181,-0.001901
3637.8817,-0.001262
3639.7454,-0.001186
3641.6091,-0.001887
3643.4727,-0.002531
3645.3364,-0.002036
3647.2001,-0.002981
3649.0637,-0.003726
3650.9274,-0.002023
3652.7911,-0.000948
3654.6547,-0.001052
3656.5184,-0.001557
3658.3821,-0.001517
3660.2458,-0.001452
3662.1094,-0.002061
3663.9731,-0.002019
3665.8368,-0.001475
3667.7004,-0.000935
3669.5641,-0.001492
3671.4278,-0.002685
3673.2914,-0.003210
3675.1551,-0.002898
3677.0188,-0.001970
3678.8824,-0.001396
3680.7461,-0.001690
3682.6098,-0.001692
3684.4735,-0.002151
3686.3371,-0.002531
3688.2008,-0.002892
3690.0645,-0.002527
3691.9281,-0.000504
3693.7918,-0.000382
3695.6555,-0.001498
3697.5191,-0.002304
3699.3828,-0.002416
3701.2465,-0.003042
3703.1101,-0.002360
3704.9738,-0.001530
3706.8375,-0.002030
3708.7011,-0.002560
3710.5648,-0.002387
3712.4285,-0.001882
3714.2922,-0.000739
3716.1558,-0.000873
3718.0195,-0.001910
3719.8832,-0.002054
3721.7468,-0.002451
3723.6105,-0.002433
3725.4742,-0.001812
3727.3378,-0.001370
3729.2015,-0.000895
3731.0652,-0.001876
3732.9288,-0.003129
3734.7925,-0.002224
3736.6562,-0.002168
3738.5199,-0.002227
3740.3835,-0.002016
3742.2472,-0.003335
3744.1109,-0.003131
3745.9745,-0.001881
3747.8382,-0.001526
3749.7019,-0.003345
3751.5655,-0.003076
3753.4292,-0.001274
3755.2929,-0.001553
3757.1565,-0.002677
3759.0202,-0.002149
3760.8839,-0.000963
3762.7475,-0.000524
3764.6112,-0.001028
3766.4749,-0.002943
3768.3386,-0.003084
3770.2022,-0.002349
3772.0659,-0.001983
3773.9296,-0.001832
3775.7932,-0.001779
3777.6569,-0.001571
3779.5206,-0.001745
3781.3842,-0.002000
3783.2479,-0.001724
3785.1116,-0.001508
3786.9752,-0.001739
3788.8389,-0.001737
3790.7026,-0.001597
3792.5662,-0.001247
3794.4299,-0.001845
3796.2936,-0.002636
3798.1573,-0.002717
3800.0209,-0.002890
3801.8846,-0.003803
3803.7483,-0.002322
3805.6119,-0.001670
3807.4756,-0.002562
3809.3393,-0.001246
3811.2029,-0.000692
3813.0666,-0.001745
3814.9303,-0.002944
3816.7939,-0.003565
3818.6576,-0.002787
3820.5213,-0.002689
3822.3850,-0.002814
3824.2486,-0.001854
3826.1123,-0.001877
3827.9760,-0.002134
3829.8396,-0.001643
3831.7033,-0.001631
3833.5670,-0.001468
3835.4306,-0.001642
3837.2943,-0.002784
3839.1580,-0.002615
3841.0216,-0.001487
3842.8853,-0.001694
3844.7490,-0.001754
3846.6126,-0.001237
3848.4763,-0.001865
3850.3400,-0.003091
3852.2037,-0.004099
3854.0673,-0.004039
3855.9310,-0.001533
3857.7947,-0.000741
3859.6583,-0.001979
3861.5220,-0.002636
3863.3857,-0.003088
3865.2493,-0.002612
3867.1130,-0.002827
3868.9767,-0.002741
3870.8403,-0.002619
3872.7040,-0.001767
3874.5677,-0.002360
3876.4314,-0.002653
3878.2950,-0.001385
3880.1587,-0.001686
3882.0224,-0.002772
3883.8860,-0.002342
3885.7497,-0.001734
3887.6134,-0.001469
3889.4770,-0.001952
3891.3407,-0.002369
3893.2044,-0.001911
3895.0680,-0.001585
3896.9317,-0.001983
3898.7954,-0.003093
3900.6590,-0.003671
3902.5227,-0.002585
3904.3864,-0.001466
3906.2501,-0.001553
3908.1137,-0.001569
3909.9774,-0.001544
3911.8411,-0.002070
3913.7047,-0.001901
3915.5684,-0.001502
3917.4321,-0.001888
3919.2957,-0.002637
3921.1594,-0.002069
3923.0231,-0.001212
3924.8867,-0.001188
3926.7504,-0.001542
3928.6141,-0.001519
3930.4777,-0.002178
3932.3414,-0.002553
3934.2051,-0.002140
3936.0688,-0.001759
3937.9324,-0.001846
3939.7961,-0.001629
3941.6598,-0.001365
3943.5234,-0.002005
3945.3871,-0.002293
3947.2508,-0.002181
3949.1144,-0.002432
3950.9781,-0.001804
3952.8418,-0.000776
3954.7054,-0.001215
3956.5691,-0.002418
3958.4328,-0.002790
3960.2965,-0.002155
3962.1601,-0.001702
3964.0238,-0.001360
3965.8875,-0.000724
3967.7511,-0.001296
3969.6148,-0.002411
3971.4785,-0.002351
3973.3421,-0.001335
3975.2058,-0.001654
3977.0695,-0.002788
3978.9331,-0.002393
3980.7968,-0.001449
3982.6605,-0.001551
3984.5241,-0.001066
3986.3878,-0.001210
3988.2515,-0.001775
3990.1152,-0.002342
3991.9788,-0.002598
3993.8425,-0.002447
3995.7062,-0.001832
3997.5698,-0.002065
3999.4335,-0.003017
4001.2972,-0.002817
4003.1608,-0.001819
4005.0245,-0.000520
4006.8882,-0.000853
4008.7518,-0.001983
4010.6155,-0.002252
4012.4792,-0.002490
4014.3429,-0.002676
4016.2065,-0.002200
4018.0702,-0.001739
4019.9339,-0.002581
4021.7975,-0.002709
4023.6612,-0.001688
4025.5249,-0.001563
4027.3885,-0.002167
4029.2522,-0.001687
4031.1159,-0.001080
4032.9795,-0.001093
4034.8432,-0.001575
4036.7069,-0.001695
4038.5705,-0.002029
4040.4342,-0.002208
4042.2979,-0.001276
4044.1616,-0.001229
4046.0252,-0.002170
4047.8889,-0.002455
4049.7526,-0.002173
4051.6162,-0.001716
4053.4799,-0.002079
4055.3436,-0.002157
4057.2072,-0.001558
4059.0709,-0.001676
4060.9346,-0.002360
4062.7982,-0.001836
4064.6619,-0.002049
4066.5256,-0.002941
4068.3892,-0.002229
4070.2529,-0.001243
4072.1166,-0.001580
4073.9803,-0.001877
4075.8439,-0.001721
4077.7076,-0.001532
4079.5713,-0.001511
4081.4349,-0.001790
4083.2986,-0.001896
4085.1623,-0.002231
4087.0259,-0.002283
4088.8896,-0.002003
4090.7533,-0.002130
4092.6169,-0.001851
4094.4806,-0.001896
4096.3443,-0.002581
4098.2080,-0.002420
4100.0716,-0.002061
4101.9353,-0.001998
4103.7990,-0.002003
4105.6626,-0.002038
4107.5263,-0.002326
4109.3900,-0.002093
4111.2536,-0.002068
4113.1173,-0.002350
4114.9810,-0.002642
4116.8446,-0.001771
4118.7083,-0.002152
4120.5720,-0.002238
4122.4356,-0.001443
4124.2993,-0.001744
4126.1630,-0.002135
4128.0267,-0.002100
4129.8903,-0.002314
4131.7540,-0.002017
4133.6177,-0.001913
4135.4813,-0.002639
4137.3450,-0.001976
4139.2087,-0.002097
4141.0723,-0.002325
4142.9360,-0.001699
4144.7997,-0.001386
4146.6633,-0.001645
4148.5270,-0.002481
4150.3907,-0.002404
4152.2544,-0.001820
4154.1180,-0.001872
4155.9817,-0.001893
4157.8454,-0.002034
4159.7090,-0.002223
4161.5727,-0.001892
4163.4364,-0.001986
4165.3000,-0.002793
4167.1637,-0.002645
4169.0274,-0.001707
4170.8910,-0.001590
4172.7547,-0.001172
4174.6184,-0.001095
4176.4820,-0.001922
4178.3457,-0.002096
4180.2094,-0.001731
4182.0731,-0.002316
4183.9367,-0.001539
4185.8004,-0.001041
4187.6641,-0.001436
4189.5277,-0.001738
4191.3914,-0.002275
4193.2551,-0.002397
4195.1187,-0.002115
4196.9824,-0.002530
4198.8461,-0.002594
4200.7097,-0.001960
4202.5734,-0.001994
4204.4371,-0.002918
4206.3007,-0.002918
4208.1644,-0.002212
4210.0281,-0.002116
4211.8918,-0.001417
4213.7554,-0.001584
4215.6191,-0.002039
4217.4828,-0.002122
4219.3464,-0.002162
4221.2101,-0.002099
4223.0738,-0.002227
4224.9374,-0.001880
4226.8011,-0.000897
4228.6648,-0.001053
4230.5284,-0.001582
4232.3921,-0.002288
4234.2558,-0.002825
4236.1195,-0.002738
4237.9831,-0.002179
4239.8468,-0.000974
4241.7105,-0.001434
4243.5741,-0.001961
4245.4378,-0.002465
4247.3015,-0.002684
4249.1651,-0.002169
4251.0288,-0.002058
4252.8925,-0.001876
4254.7561,-0.002036
4256.6198,-0.002921
4258.4835,-0.002793
4260.3471,-0.002238
4262.2108,-0.001645
4264.0745,-0.001449
4265.9382,-0.002167
4267.8018,-0.002416
4269.6655,-0.002148
4271.5292,-0.002105
4273.3928,-0.002254
4275.2565,-0.002282
4277.1202,-0.001979
4278.9838,-0.001917
4280.8475,-0.002261
4282.7112,-0.002959
4284.5748,-0.002740
4286.4385,-0.002000
4288.3022,-0.001542
4290.1659,-0.002480
4292.0295,-0.002115
4293.8932,-0.001580
4295.7569,-0.001766
4297.6205,-0.001882
4299.4842,-0.002504
4301.3479,-0.003306
4303.2115,-0.003120
4305.0752,-0.003124
4306.9389,-0.003057
4308.8025,-0.002444
4310.6662,-0.002525
4312.5299,-0.002632
4314.3935,-0.001581
4316.2572,-0.001126
4318.1209,-0.001764
4319.9846,-0.002534
4321.8482,-0.002150
4323.7119,-0.001698
4325.5756,-0.001686
4327.4392,-0.001779
4329.3029,-0.001672
4331.1666,-0.001458
4333.0302,-0.001835
4334.8939,-0.002295
4336.7576,-0.002006
4338.6212,-0.001489
4340.4849,-0.001383
4342.3486,-0.001540
4344.2122,-0.002613
4346.0759,-0.002541
4347.9396,-0.001328
4349.8033,-0.001142
4351.6669,-0.001890
4353.5306,-0.002600
4355.3943,-0.002003
4357.2579,-0.001373
4359.1216,-0.001150
4360.9853,-0.001544
4362.8489,-0.002254
4364.7126,-0.001282
4366.5763,-0.000627
4368.4399,-0.001798
4370.3036,-0.002406
4372.1673,-0.002228
4374.0310,-0.002370
4375.8946,-0.002235
4377.7583,-0.000965
4379.6220,-0.000785
4381.4856,-0.001423
4383.3493,-0.001400
4385.2130,-0.001789
4387.0766,-0.002921
4388.9403,-0.003119
4390.8040,-0.002511
4392.6676,-0.001781
4394.5313,-0.001803
4396.3950,-0.001876
4398.2586,-0.001663
4400.1223,-0.000728
4401.9860,-0.000806
4403.8497,-0.001864
4405.7133,-0.002194
4407.5770,-0.001323
4409.4407,-0.001091
4411.3043,-0.001554
4413.1680,-0.002903
4415.0317,-0.002964
4416.8953,-0.002206
4418.7590,-0.001306
4420.6227,-0.001092
4422.4863,-0.000967
4424.3500,-0.001390
4426.2137,-0.002256
4428.0774,-0.002232
4429.9410,-0.001057
4431.8047,0.000053
4433.6684,-0.000698
4435.5320,-0.002457
4437.3957,-0.002677
4439.2594,-0.002226
4441.1230,-0.001541
4442.9867,-0.002488
4444.8504,-0.002794
4446.7140,-0.001847
4448.5777,-0.001067
4450.4414,-0.000973
4452.3050,-0.001429
4454.1687,-0.001434
4456.0324,-0.000941
4457.8961,-0.001934
4459.7597,-0.002703
4461.6234,-0.000910
4463.4871,-0.000168
4465.3507,-0.001306
4467.2144,-0.001844
4469.0781,-0.001596
4470.9417,-0.001578
4472.8054,-0.002378
4474.6691,-0.002308
4476.5327,-0.001693
4478.3964,-0.001614
4480.2601,-0.001318
4482.1237,-0.000555
4483.9874,-0.000962
4485.8511,-0.002421
4487.7148,-0.003009
4489.5784,-0.002668
4491.4421,-0.001915
4493.3058,-0.001569
4495.1694,-0.002702
4497.0331,-0.003339
4498.8968,-0.002958
4500.7604,-0.002429
