Wavenumber,Intensity
600.1014,0.009576
601.9651,0.017155
603.8287,0.017509
605.6924,0.010072
607.5561,0.003527
609.4197,0.006301
611.2834,0.015350
613.1471,0.015706
615.0107,0.009210
616.8744,0.005513
618.7381,0.007051
620.6017,0.006585
622.4654,0.003703
624.3291,0.003772
626.1928,0.007342
628.0564,0.008414
629.9201,0.008036
631.7838,0.007275
633.6474,0.007389
635.5111,0.005195
637.3748,0.001250
639.2384,0.002242
641.1021,0.006260
642.9658,0.006994
644.8294,0.006387
646.6931,0.004013
648.5568,0.004195
650.4205,0.003653
652.2841,0.001998
654.1478,0.002886
656.0115,0.003452
657.8751,0.002553
659.7388,0.003445
661.6025,0.003152
663.4661,0.001945
665.3298,0.002180
667.1935,0.003657
669.0571,0.004154
670.9208,0.002476
672.7845,0.002191
674.6481,0.001925
676.5118,0.002417
678.3755,0.003371
680.2392,0.002828
682.1028,0.001587
683.9665,0.001406
685.8302,0.001796
687.6938,0.001869
689.5575,0.002198
691.4212,0.002916
693.2848,0.002917
695.1485,0.002752
697.0122,0.002302
698.8758,0.001869
700.7395,0.002039
702.6032,0.002064
704.4669,0.002290
706.3305,0.002536
708.1942,0.002107
710.0579,0.001389
711.9215,0.000879
713.7852,0.001062
715.6489,0.001098
717.5125,0.000712
719.3762,0.001525
721.2399,0.002344
723.1035,0.002137
724.9672,0.002127
726.8309,0.002199
728.6945,0.001975
730.5582,0.001662
732.4219,0.001483
734.2856,0.001378
736.1492,0.001468
738.0129,0.001348
739.8766,0.001612
741.7402,0.001773
743.6039,0.001926
745.4676,0.002006
747.3312,0.001744
749.1949,0.001644
751.0586,0.001566
752.9222,0.001366
754.7859,0.001312
756.6496,0.001592
758.5132,0.001620
760.3769,0.001474
762.2406,0.001391
764.1043,0.001725
765.9679,0.002021
767.8316,0.001888
769.6953,0.001925
771.5589,0.002259
773.4226,0.002041
775.2863,0.001757
777.1499,0.002049
779.0136,0.002246
780.8773,0.002184
782.7409,0.002109
784.6046,0.002001
786.4683,0.001927
788.3320,0.001858
790.1956,0.001944
792.0593,0.002179
793.9230,0.002454
795.7866,0.002573
797.6503,0.002260
799.5140,0.001847
801.3776,0.001786
803.2413,0.001806
805.1050,0.001657
806.9686,0.001326
808.8323,0.001222
810.6960,0.001274
812.5596,0.001454
814.4233,0.001500
816.2870,0.001395
818.1507,0.001113
820.0143,0.001040
821.8780,0.001332
823.7417,0.001435
825.6053,0.001360
827.4690,0.001244
829.3327,0.001279
831.1963,0.001390
833.0600,0.001473
834.9237,0.001405
836.7873,0.001402
838.6510,0.001416
840.5147,0.001371
842.3784,0.001220
844.2420,0.000962
846.1057,0.000834
847.9694,0.000935
849.8330,0.001120
851.6967,0.001136
853.5604,0.001166
855.4240,0.001108
857.2877,0.000960
859.1514,0.001009
861.0150,0.001235
862.8787,0.001298
864.7424,0.001194
866.6060,0.001147
868.4697,0.001185
870.3334,0.001229
872.1971,0.001106
874.0607,0.001020
875.9244,0.001064
877.7881,0.001074
879.6517,0.001133
881.5154,0.001104
883.3791,0.001070
885.2427,0.001231
887.1064,0.001420
888.9701,0.001528
890.8337,0.001504
892.6974,0.001413
894.5611,0.001411
896.4247,0.001540
898.2884,0.001568
900.1521,0.001659
902.0158,0.001702
903.8794,0.001573
905.7431,0.001578
907.6068,0.001608
909.4704,0.001584
911.3341,0.001714
913.1978,0.001914
915.0614,0.001950
916.9251,0.001949
918.7888,0.001985
920.6524,0.001971
922.5161,0.002027
924.3798,0.002123
926.2435,0.002158
928.1071,0.002188
929.9708,0.002183
931.8345,0.002200
933.6981,0.002328
935.5618,0.002498
937.4255,0.002647
939.2891,0.002745
941.1528,0.002788
943.0165,0.002880
944.8801,0.002953
946.7438,0.003060
948.6075,0.003139
950.4711,0.003055
952.3348,0.002927
954.1985,0.002723
956.0622,0.002424
957.9258,0.002243
959.7895,0.002299
961.6532,0.002332
963.5168,0.002243
965.3805,0.002243
967.2442,0.002319
969.1078,0.002316
970.9715,0.002289
972.8352,0.002446
974.6988,0.002578
976.5625,0.002482
978.4262,0.002475
980.2899,0.002635
982.1535,0.002677
984.0172,0.002833
985.8809,0.003047
987.7445,0.003052
989.6082,0.003077
991.4719,0.003157
993.3355,0.003197
995.1992,0.003214
997.0629,0.003301
998.9265,0.003446
1000.7902,0.003512
1002.6539,0.003619
1004.5175,0.003748
1006.3812,0.003793
1008.2449,0.003951
1010.1086,0.004108
1011.9722,0.004139
1013.8359,0.004205
1015.6996,0.004207
1017.5632,0.004196
1019.4269,0.004292
1021.2906,0.004472
1023.1542,0.004545
1025.0179,0.004551
1026.8816,0.004613
1028.7452,0.004694
1030.6089,0.004877
1032.4726,0.005006
1034.3362,0.005058
1036.1999,0.005173
1038.0636,0.005237
1039.9273,0.005353
1041.7909,0.005530
1043.6546,0.005577
1045.5183,0.005574
1047.3819,0.005599
1049.2456,0.005624
1051.1093,0.005600
1052.9729,0.005545
1054.8366,0.005431
1056.7003,0.005395
1058.5639,0.005417
1060.4276,0.005452
1062.2913,0.005554
1064.1550,0.005684
1066.0186,0.005884
1067.8823,0.005981
1069.7460,0.005862
1071.6096,0.005709
1073.4733,0.005624
1075.3370,0.005545
1077.2006,0.005438
1079.0643,0.005425
1080.9280,0.005382
1082.7916,0.005216
1084.6553,0.005053
1086.5190,0.004897
1088.3826,0.004713
1090.2463,0.004596
1092.1100,0.004556
1093.9737,0.004525
1095.8373,0.004443
1097.7010,0.004359
1099.5647,0.004220
1101.4283,0.004071
1103.2920,0.003995
1105.1557,0.003890
1107.0193,0.003760
1108.8830,0.003726
1110.7467,0.003677
1112.6103,0.003511
1114.4740,0.003432
1116.3377,0.003549
1118.2014,0.003696
1120.0650,0.003748
1121.9287,0.003661
1123.7924,0.003467
1125.6560,0.003301
1127.5197,0.003186
1129.3834,0.003054
1131.2470,0.002925
1133.1107,0.002816
1134.9744,0.002711
1136.8380,0.002571
1138.7017,0.002503
1140.5654,0.002468
1142.4290,0.002382
1144.2927,0.002304
1146.1564,0.002298
1148.0201,0.002241
1149.8837,0.002120
1151.7474,0.002076
1153.6111,0.002139
1155.4747,0.002161
1157.3384,0.002123
1159.2021,0.002071
1161.0657,0.002026
1162.9294,0.001981
1164.7931,0.001955
1166.6567,0.001906
1168.5204,0.001813
1170.3841,0.001765
1172.2477,0.001781
1174.1114,0.001802
1175.9751,0.001767
1177.8388,0.001740
1179.7024,0.001686
1181.5661,0.001585
1183.4298,0.001580
1185.2934,0.001635
1187.1571,0.001590
1189.0208,0.001472
1190.8844,0.001447
1192.7481,0.001440
1194.6118,0.001399
1196.4754,0.001345
1198.3391,0.001337
1200.2028,0.001360
1202.0665,0.001337
1203.9301,0.001312
1205.7938,0.001225
1207.6575,0.001191
1209.5211,0.001213
1211.3848,0.001157
1213.2485,0.001089
1215.1121,0.001069
1216.9758,0.001076
1218.8395,0.001025
1220.7031,0.000991
1222.5668,0.000975
1224.4305,0.000965
1226.2941,0.000901
1228.1578,0.000816
1230.0215,0.000797
1231.8852,0.000755
1233.7488,0.000683
1235.6125,0.000646
1237.4762,0.000561
1239.3398,0.000527
1241.2035,0.000617
1243.0672,0.000616
1244.9308,0.000530
1246.7945,0.000502
1248.6582,0.000506
1250.5218,0.000435
1252.3855,0.000348
1254.2492,0.000312
1256.1129,0.000292
1257.9765,0.000262
1259.8402,0.000274
1261.7039,0.000281
1263.5675,0.000238
1265.4312,0.000161
1267.2949,0.000088
1269.1585,0.000102
1271.0222,0.000168
1272.8859,0.000126
1274.7495,0.000090
1276.6132,0.000073
1278.4769,0.000064
1280.3405,0.000098
1282.2042,0.000142
1284.0679,0.000147
1285.9316,0.000104
1287.7952,0.000166
1289.6589,0.000147
1291.5226,0.000098
1293.3862,0.000199
1295.2499,0.000215
1297.1136,0.000155
1298.9772,0.000107
1300.8409,0.000104
1302.7046,0.000133
1304.5682,0.000107
1306.4319,-0.000006
1308.2956,-0.000008
1310.1592,0.000033
1312.0229,0.000012
1313.8866,0.000038
1315.7503,0.000092
1317.6139,0.000087
1319.4776,0.000070
1321.3413,0.000092
1323.2049,0.000120
1325.0686,0.000106
1326.9323,0.000126
1328.7959,0.000184
1330.6596,0.000071
1332.5233,-0.000091
1334.3869,-0.000095
1336.2506,-0.000008
1338.1143,0.000069
1339.9780,0.000068
1341.8416,-0.000032
1343.7053,-0.000057
1345.5690,-0.000051
1347.4326,0.000000
1349.2963,0.000028
1351.1600,-0.000045
1353.0236,-0.000079
1354.8873,-0.000021
1356.7510,0.000012
1358.6146,0.000022
1360.4783,0.000084
1362.3420,0.000138
1364.2056,0.000032
1366.0693,-0.000027
1367.9330,-0.000006
1369.7967,-0.000081
1371.6603,-0.000085
1373.5240,-0.000042
1375.3877,-0.000094
1377.2513,-0.000042
1379.1150,0.000099
1380.9787,0.000090
1382.8423,0.000000
1384.7060,-0.000003
1386.5697,0.000057
1388.4333,-0.000073
1390.2970,-0.000041
1392.1607,0.000138
1394.0244,0.000198
1395.8880,0.000092
1397.7517,0.000057
1399.6154,-0.000007
1401.4790,-0.000100
1403.3427,-0.000028
1405.2064,0.000052
1407.0700,0.000052
1408.9337,0.000034
1410.7974,-0.000008
1412.6610,-0.000022
1414.5247,0.000105
1416.3884,0.000112
1418.2520,0.000066
1420.1157,-0.000074
1421.9794,-0.000089
1423.8431,0.000001
1425.7067,-0.000166
1427.5704,-0.000107
1429.4341,0.000103
1431.2977,0.000094
1433.1614,0.000015
1435.0251,0.000077
1436.8887,-0.000007
1438.7524,-0.000216
1440.6161,-0.000010
1442.4797,0.000138
1444.3434,0.000131
1446.2071,0.000053
1448.0707,0.000034
1449.9344,-0.000022
1451.7981,0.000049
1453.6618,0.000127
1455.5254,0.000245
1457.3891,0.000031
1459.2528,-0.000199
1461.1164,-0.000024
1462.9801,0.000078
1464.8438,-0.000050
1466.7074,-0.000191
1468.5711,-0.000005
1470.4348,0.000167
1472.2984,0.000184
1474.1621,-0.000094
1476.0258,-0.000144
1477.8895,-0.000226
1479.7531,-0.000125
1481.6168,0.000016
1483.4805,0.000070
1485.3441,0.000159
1487.2078,0.000171
1489.0715,0.000224
1490.9351,0.000209
1492.7988,-0.000014
1494.6625,-0.000043
1496.5261,-0.000078
1498.3898,-0.000138
1500.2535,-0.000054
1502.1171,0.000047
1503.9808,0.000143
1505.8445,0.000397
1507.7082,0.000237
1509.5718,-0.000018
1511.4355,0.000049
1513.2992,0.000045
1515.1628,-0.000061
1517.0265,-0.000228
1518.8902,-0.000193
1520.7538,0.000216
1522.6175,0.000018
1524.4812,-0.000065
1526.3448,0.000089
1528.2085,0.000062
1530.0722,0.000088
1531.9359,0.000149
1533.7995,0.000136
1535.6632,-0.000005
1537.5269,0.000145
1539.3905,0.000130
1541.2542,-0.000046
1543.1179,0.000069
1544.9815,0.000087
1546.8452,-0.000116
1548.7089,0.000026
1550.5725,0.000168
1552.4362,0.000072
1554.2999,0.000044
1556.1635,0.000020
1558.0272,0.000370
1559.8909,0.000008
1561.7546,-0.000232
1563.6182,-0.000018
1565.4819,-0.000005
1567.3456,-0.000066
1569.2092,-0.000092
1571.0729,-0.000227
1572.9366,-0.000082
1574.8002,0.000039
1576.6639,-0.000158
1578.5276,-0.000140
1580.3912,0.000186
1582.2549,0.000118
1584.1186,0.000029
1585.9822,0.000125
1587.8459,0.000109
1589.7096,-0.000004
1591.5733,-0.000032
1593.4369,0.000096
1595.3006,0.000102
1597.1643,-0.000004
1599.0279,-0.000021
1600.8916,0.000005
1602.7553,0.000136
1604.6189,0.000219
1606.4826,0.000155
1608.3463,-0.000004
1610.2099,-0.000166
1612.0736,-0.000201
1613.9373,-0.000120
1615.8010,0.000254
1617.6646,0.000193
1619.5283,-0.000009
1621.3920,0.000075
1623.2556,0.000240
1625.1193,0.000340
1626.9830,0.000354
1628.8466,0.000294
1630.7103,0.000286
1632.5740,0.000326
1634.4376,0.000280
1636.3013,-0.000043
1638.1650,-0.000039
1640.0286,0.000210
1641.8923,0.000227
1643.7560,0.000283
1645.6197,0.000296
1647.4833,-0.000045
1649.3470,-0.000024
1651.2107,0.000257
1653.0743,0.000282
1654.9380,-0.000101
1656.8017,0.000033
1658.6653,0.000036
1660.5290,-0.000030
1662.3927,0.000027
1664.2563,0.000016
1666.1200,0.000016
1667.9837,0.000068
1669.8474,0.000078
1671.7110,-0.000008
1673.5747,0.000084
1675.4384,0.000122
1677.3020,0.000035
1679.1657,0.000169
1681.0294,0.000088
1682.8930,0.000125
1684.7567,-0.000065
1686.6204,-0.000402
1688.4840,-0.000091
1690.3477,0.000066
1692.2114,0.000166
1694.0750,0.000203
1695.9387,0.000033
1697.8024,0.000014
1699.6661,0.000433
1701.5297,-0.000114
1703.3934,-0.000104
1705.2571,0.000045
1707.1207,-0.000216
1708.9844,-0.000238
1710.8481,-0.000070
1712.7117,0.000094
1714.5754,0.000225
1716.4391,0.000356
1718.3027,0.000296
1720.1664,0.000015
1722.0301,0.000043
1723.8937,0.000004
1725.7574,-0.000016
1727.6211,-0.000030
1729.4848,-0.000093
1731.3484,-0.000141
1733.2121,0.000029
1735.0758,-0.000265
1736.9394,-0.000387
1738.8031,-0.000027
1740.6668,-0.000047
1742.5304,-0.000022
1744.3941,0.000062
1746.2578,0.000091
1748.1214,0.000011
1749.9851,-0.000145
1751.8488,-0.000119
1753.7125,-0.000075
1755.5761,0.000006
1757.4398,0.000047
1759.3035,0.000101
1761.1671,0.000150
1763.0308,0.000086
1764.8945,0.000040
1766.7581,0.000080
1768.6218,0.000033
1770.4855,0.000070
1772.3491,0.000165
1774.2128,-0.000141
1776.0765,-0.000238
1777.9401,-0.000223
1779.8038,-0.000070
1781.6675,0.000032
1783.5312,0.000202
1785.3948,0.000162
1787.2585,-0.000158
1789.1222,-0.000082
1790.9858,0.000313
1792.8495,0.000173
1794.7132,-0.000221
1796.5768,-0.000262
1798.4405,-0.000067
1800.3042,0.000154
1802.1678,-0.000028
1804.0315,-0.000085
1805.8952,-0.000033
1807.7589,-0.000052
1809.6225,0.000013
1811.4862,0.000005
1813.3499,-0.000060
1815.2135,-0.000085
1817.0772,-0.000199
1818.9409,-0.000180
1820.8045,-0.000143
1822.6682,-0.000071
1824.5319,-0.000019
1826.3955,-0.000236
1828.2592,-0.000256
1830.1229,-0.000186
1831.9865,-0.000294
1833.8502,-0.000197
1835.7139,-0.000126
1837.5776,-0.000091
1839.4412,-0.000110
1841.3049,-0.000116
1843.1686,-0.000011
1845.0322,-0.000082
1846.8959,-0.000115
1848.7596,0.000092
1850.6232,0.000035
1852.4869,-0.000066
1854.3506,-0.000074
1856.2142,-0.000193
1858.0779,-0.000312
1859.9416,-0.000241
1861.8052,-0.000226
1863.6689,-0.000035
1865.5326,-0.000037
1867.3963,-0.000148
1869.2599,-0.000193
1871.1236,-0.000342
1872.9873,-0.000240
1874.8509,-0.000198
1876.7146,-0.000277
1878.5783,-0.000136
1880.4419,-0.000117
1882.3056,-0.000202
1884.1693,-0.000040
1886.0329,0.000059
1887.8966,-0.000347
1889.7603,-0.000227
1891.6240,0.000323
1893.4876,0.000348
1895.3513,-0.000014
1897.2150,-0.000158
1899.0786,-0.000105
1900.9423,-0.000119
1902.8060,-0.000124
1904.6696,-0.000236
1906.5333,-0.000343
1908.3970,-0.000182
1910.2606,0.000310
1912.1243,0.000553
1913.9880,0.000189
1915.8516,-0.000102
1917.7153,0.000116
1919.5790,0.000133
1921.4427,-0.000201
1923.3063,-0.000434
1925.1700,-0.000470
1927.0337,-0.000249
1928.8973,-0.000218
1930.7610,-0.000283
1932.6247,-0.000176
1934.4883,0.000104
1936.3520,0.000014
1938.2157,-0.000403
1940.0793,-0.000114
1941.9430,0.000763
1943.8067,0.000560
1945.6704,-0.000275
1947.5340,-0.000532
1949.3977,-0.000529
1951.2614,-0.000801
1953.1250,-0.000567
1954.9887,0.000175
1956.8524,0.000150
1958.7160,0.000430
1960.5797,0.000667
1962.4434,0.000022
1964.3070,-0.000538
1966.1707,-0.000751
1968.0344,-0.000237
1969.8980,0.000073
1971.7617,-0.000447
1973.6254,-0.000893
1975.4891,-0.001319
1977.3527,-0.001496
1979.2164,-0.001247
1981.0801,-0.001182
1982.9437,-0.000958
1984.8074,-0.000596
1986.6711,0.000035
1988.5347,0.000233
1990.3984,-0.000025
1992.2621,0.000212
1994.1257,0.000645
1995.9894,0.000478
1997.8531,-0.000035
1999.7167,-0.000065
2001.5804,0.000265
2003.4441,-0.000061
2005.3078,-0.000583
2007.1714,-0.000898
2009.0351,-0.001130
2010.8988,-0.001185
2012.7624,-0.000548
2014.6261,0.000510
2016.4898,0.001109
2018.3534,0.000628
2020.2171,-0.000358
2022.0808,-0.000552
2023.9444,-0.000374
2025.8081,-0.000438
2027.6718,-0.000219
2029.5355,0.000248
2031.3991,0.000402
2033.2628,0.000533
2035.1265,0.000539
2036.9901,0.000003
2038.8538,-0.000461
2040.7175,-0.000581
2042.5811,-0.000833
2044.4448,-0.000784
2046.3085,-0.000282
2048.1721,0.000063
2050.0358,0.000404
2051.8995,0.000460
2053.7631,0.000346
2055.6268,0.000564
2057.4905,0.000182
2059.3542,-0.000354
2061.2178,0.000016
2063.0815,0.000238
2064.9452,0.000191
2066.8088,0.000009
2068.6725,-0.000063
2070.5362,0.000252
2072.3998,0.000154
2074.2635,-0.000324
2076.1272,-0.000345
2077.9908,-0.000201
2079.8545,-0.000342
2081.7182,-0.000221
2083.5819,0.000186
2085.4455,0.000236
2087.3092,0.000099
2089.1729,-0.000049
2091.0365,-0.000044
2092.9002,0.000143
2094.7639,0.000137
2096.6275,0.000160
2098.4912,0.000208
2100.3549,-0.000107
2102.2185,-0.000119
2104.0822,0.000034
2105.9459,0.000046
2107.8095,0.000232
2109.6732,0.000072
2111.5369,-0.000489
2113.4006,-0.000297
2115.2642,0.000144
2117.1279,-0.000035
2118.9916,0.000089
2120.8552,0.000586
2122.7189,0.000361
2124.5826,-0.000017
2126.4462,-0.000048
2128.3099,-0.000096
2130.1736,0.000306
2132.0372,0.000484
2133.9009,-0.000021
2135.7646,-0.000057
2137.6282,0.000437
2139.4919,0.000326
2141.3556,-0.000142
2143.2193,0.000148
2145.0829,0.000581
2146.9466,0.000414
2148.8103,0.000193
2150.6739,0.000382
2152.5376,-0.000033
2154.4013,-0.001206
2156.2649,-0.001501
2158.1286,-0.000168
2159.9923,0.001252
2161.8559,0.001411
2163.7196,0.001058
2165.5833,0.000180
2167.4470,-0.000450
2169.3106,-0.000029
2171.1743,0.000182
2173.0380,0.000509
2174.9016,0.001066
2176.7653,0.000667
2178.6290,0.000224
2180.4926,-0.000021
2182.3563,-0.000335
2184.2200,0.000126
2186.0836,0.000246
2187.9473,0.000029
2189.8110,-0.000325
2191.6746,-0.000559
2193.5383,-0.000129
2195.4020,0.000134
2197.2657,-0.000192
2199.1293,-0.000129
2200.9930,0.000146
2202.8567,-0.000210
2204.7203,-0.000447
2206.5840,-0.000095
2208.4477,0.000171
2210.3113,-0.000008
2212.1750,-0.000363
2214.0387,-0.000193
2215.9023,0.000482
2217.7660,0.000436
2219.6297,0.000017
2221.4934,-0.000288
2223.3570,-0.000712
2225.2207,-0.000561
2227.0844,0.000034
2228.9480,0.000053
2230.8117,-0.000267
2232.6754,-0.000060
2234.5390,-0.000001
2236.4027,-0.000148
2238.2664,0.000064
2240.1300,0.000194
2241.9937,0.000107
2243.8574,-0.000222
2245.7210,-0.000478
2247.5847,-0.000254
2249.4484,-0.000046
2251.3121,0.000322
2253.1757,0.000547
2255.0394,0.000203
2256.9031,0.000042
2258.7667,-0.000075
2260.6304,-0.000013
2262.4941,0.000058
2264.3577,-0.000061
2266.2214,-0.000003
2268.0851,0.000131
2269.9487,0.000163
2271.8124,-0.000138
2273.6761,-0.000639
2275.5397,-0.000682
2277.4034,-0.000151
2279.2671,0.000295
2281.1308,0.000582
2282.9944,0.000520
2284.8581,0.000181
2286.7218,-0.000162
2288.5854,-0.000327
2290.4491,0.000006
2292.3128,0.000379
2294.1764,0.000445
2296.0401,0.000468
2297.9038,0.000429
2299.7674,0.000315
2301.6311,0.000217
2303.4948,0.000441
2305.3585,0.000753
2307.2221,0.000768
2309.0858,0.000713
2310.9495,0.000571
2312.8131,0.000588
2314.6768,0.001007
2316.5405,0.001502
2318.4041,0.001731
2320.2678,0.001949
2322.1315,0.002258
2323.9951,0.002171
2325.8588,0.002229
2327.7225,0.002470
2329.5861,0.002348
2331.4498,0.002160
2333.3135,0.002100
2335.1772,0.002095
2337.0408,0.002177
2338.9045,0.002372
2340.7682,0.002526
2342.6318,0.002559
2344.4955,0.002506
2346.3592,0.002156
2348.2228,0.001589
2350.0865,0.001615
2351.9502,0.002038
2353.8138,0.002375
2355.6775,0.002754
2357.5412,0.003200
2359.4049,0.003284
2361.2685,0.003054
2363.1322,0.002983
2364.9959,0.003007
2366.8595,0.002770
2368.7232,0.002206
2370.5869,0.001919
2372.4505,0.002025
2374.3142,0.001893
2376.1779,0.001570
2378.0415,0.001184
2379.9052,0.000655
2381.7689,0.000254
2383.6325,0.000098
2385.4962,0.000039
2387.3599,-0.000145
2389.2236,-0.000086
2391.0872,0.000119
2392.9509,-0.000120
2394.8146,-0.000413
2396.6782,-0.000322
2398.5419,-0.000209
2400.4056,-0.000196
2402.2692,-0.000163
2404.1329,-0.000263
2405.9966,-0.000299
2407.8602,-0.000127
2409.7239,-0.000235
2411.5876,-0.000412
2413.4512,-0.000230
2415.3149,-0.000224
2417.1786,-0.000507
2419.0423,-0.000263
2420.9059,0.000140
2422.7696,0.000288
2424.6333,0.000064
2426.4969,-0.000452
2428.3606,-0.000429
2430.2243,-0.000055
2432.0879,-0.000189
2433.9516,-0.000491
2435.8153,-0.000512
2437.6789,-0.000297
2439.5426,0.000081
2441.4063,0.000103
2443.2700,0.000111
2445.1336,0.000044
2446.9973,-0.000335
2448.8610,-0.000322
2450.7246,-0.000088
2452.5883,-0.000210
2454.4520,-0.000252
2456.3156,0.000009
2458.1793,0.000010
2460.0430,-0.000274
2461.9066,-0.000265
2463.7703,0.000028
2465.6340,0.000125
2467.4976,-0.000054
2469.3613,-0.000108
2471.2250,0.000067
2473.0887,0.000072
2474.9523,-0.000174
2476.8160,-0.000292
2478.6797,-0.000207
2480.5433,-0.000242
2482.4070,-0.000282
2484.2707,-0.000103
2486.1343,-0.000134
2487.9980,-0.000294
2489.8617,-0.000040
2491.7253,-0.000019
2493.5890,-0.000437
2495.4527,-0.000487
2497.3164,-0.000105
2499.1800,0.000256
2501.0437,0.000252
2502.9074,-0.000162
2504.7710,-0.000399
2506.6347,-0.000267
2508.4984,-0.000074
2510.3620,-0.000144
2512.2257,-0.000504
2514.0894,-0.000607
2515.9530,-0.000513
2517.8167,-0.000533
2519.6804,-0.000581
2521.5440,-0.000365
2523.4077,-0.000091
2525.2714,-0.000055
2527.1351,-0.000138
2528.9987,-0.000197
2530.8624,-0.000144
2532.7261,0.000187
2534.5897,0.000151
2536.4534,-0.000211
2538.3171,-0.000277
2540.1807,-0.000366
2542.0444,-0.000299
2543.9081,-0.000388
2545.7717,-0.000633
2547.6354,-0.000417
2549.4991,-0.000322
2551.3627,-0.000297
2553.2264,-0.000172
2555.0901,-0.000281
2556.9538,-0.000525
2558.8174,-0.000726
2560.6811,-0.000476
2562.5448,-0.000065
2564.4084,-0.000154
2566.2721,-0.000304
2568.1358,-0.000246
2569.9994,-0.000157
2571.8631,-0.000079
2573.7268,-0.000118
2575.5904,-0.000290
2577.4541,-0.000409
2579.3178,-0.000473
2581.1815,-0.000648
2583.0451,-0.000493
2584.9088,-0.000145
2586.7725,-0.000173
2588.6361,-0.000332
2590.4998,-0.000054
2592.3635,-0.000013
2594.2271,-0.000163
2596.0908,0.000053
2597.9545,0.000115
2599.8181,-0.000153
2601.6818,-0.000486
2603.5455,-0.000566
2605.4091,-0.000432
2607.2728,-0.000332
2609.1365,-0.000334
2611.0002,-0.000327
2612.8638,-0.000195
2614.7275,-0.000186
2616.5912,-0.000153
2618.4548,-0.000242
2620.3185,-0.000442
2622.1822,-0.000403
2624.0458,-0.000416
2625.9095,-0.000517
2627.7732,-0.000390
2629.6368,-0.000074
2631.5005,0.000038
2633.3642,-0.000147
2635.2279,-0.000120
2637.0915,0.000030
2638.9552,-0.000079
2640.8189,-0.000169
2642.6825,-0.000412
2644.5462,-0.000428
2646.4099,-0.000102
2648.2735,-0.000149
2650.1372,-0.000258
2652.0009,-0.000311
2653.8645,-0.000390
2655.7282,-0.000272
2657.5919,-0.000267
2659.4555,-0.000393
2661.3192,-0.000443
2663.1829,-0.000455
2665.0466,-0.000509
2666.9102,-0.000511
2668.7739,-0.000319
2670.6376,-0.000204
2672.5012,-0.000164
2674.3649,-0.000133
2676.2286,-0.000163
2678.0922,-0.000484
2679.9559,-0.000625
2681.8196,-0.000425
2683.6832,-0.000321
2685.5469,-0.000242
2687.4106,-0.000201
2689.2742,-0.000170
2691.1379,-0.000218
2693.0016,-0.000228
2694.8653,-0.000109
2696.7289,-0.000302
2698.5926,-0.000456
2700.4563,-0.000281
2702.3199,-0.000376
2704.1836,-0.000562
2706.0473,-0.000486
2707.9109,-0.000380
2709.7746,-0.000264
2711.6383,-0.000245
2713.5019,-0.000276
2715.3656,-0.000036
2717.2293,0.000097
2719.0930,-0.000059
2720.9566,-0.000269
2722.8203,-0.000423
2724.6840,-0.000669
2726.5476,-0.000797
2728.4113,-0.000451
2730.2750,-0.000186
2732.1386,-0.000242
2734.0023,-0.000417
2735.8660,-0.000529
2737.7296,-0.000366
2739.5933,-0.000289
2741.4570,-0.000356
2743.3206,-0.000198
2745.1843,-0.000251
2747.0480,-0.000349
2748.9117,-0.000308
2750.7753,-0.000410
2752.6390,-0.000441
2754.5027,-0.000324
2756.3663,-0.000349
2758.2300,-0.000385
2760.0937,-0.000312
2761.9573,-0.000377
2763.8210,-0.000394
2765.6847,-0.000312
2767.5483,-0.000299
2769.4120,-0.000466
2771.2757,-0.000557
2773.1394,-0.000390
2775.0030,-0.000234
2776.8667,-0.000248
2778.7304,-0.000476
2780.5940,-0.000567
2782.4577,-0.000391
2784.3214,-0.000373
2786.1850,-0.000446
2788.0487,-0.000500
2789.9124,-0.000524
2791.7760,-0.000438
2793.6397,-0.000442
2795.5034,-0.000635
2797.3670,-0.000826
2799.2307,-0.000702
2801.0944,-0.000428
2802.9581,-0.000379
2804.8217,-0.000625
2806.6854,-0.000899
2808.5491,-0.000962
2810.4127,-0.000874
2812.2764,-0.000697
2814.1401,-0.000565
2816.0037,-0.000527
2817.8674,-0.000353
2819.7311,-0.000388
2821.5947,-0.000270
2823.4584,-0.000358
2825.3221,-0.000727
2827.1857,-0.000669
2829.0494,-0.000547
2830.9131,-0.000759
2832.7768,-0.000744
2834.6404,-0.000434
2836.5041,-0.000321
2838.3678,-0.000361
2840.2314,-0.000434
2842.0951,-0.000591
2843.9588,-0.000592
2845.8224,-0.000263
2847.6861,-0.000242
2849.5498,-0.000402
2851.4134,-0.000346
2853.2771,-0.000485
2855.1408,-0.000763
2857.0045,-0.000591
2858.8681,-0.000267
2860.7318,-0.000272
2862.5955,-0.000286
2864.4591,-0.000277
2866.3228,-0.000473
2868.1865,-0.000486
2870.0501,-0.000410
2871.9138,-0.000584
2873.7775,-0.000589
2875.6411,-0.000219
2877.5048,-0.000221
2879.3685,-0.000347
2881.2321,-0.000293
2883.0958,-0.000543
2884.9595,-0.000764
2886.8232,-0.000486
2888.6868,-0.000191
2890.5505,-0.000290
2892.4142,-0.000394
2894.2778,-0.000199
2896.1415,-0.000370
2898.0052,-0.000520
2899.8688,0.000045
2901.7325,0.000031
2903.5962,-0.000800
2905.4598,-0.000852
2907.3235,-0.000390
2909.1872,-0.000230
2911.0509,-0.000421
2912.9145,-0.000729
2914.7782,-0.000519
2916.6419,0.000059
2918.5055,0.000076
2920.3692,-0.000406
2922.2329,-0.000585
2924.0965,-0.000444
2925.9602,-0.000275
2927.8239,-0.000534
2929.6875,-0.000849
2931.5512,-0.000756
2933.4149,-0.000501
2935.2785,-0.000268
2937.1422,-0.000417
2939.0059,-0.000368
2940.8696,-0.000312
2942.7332,-0.000732
2944.5969,-0.000588
2946.4606,-0.000135
2948.3242,-0.000363
2950.1879,-0.000671
2952.0516,-0.000572
2953.9152,-0.000365
2955.7789,-0.000310
2957.6426,-0.000014
2959.5062,0.000219
2961.3699,-0.000287
2963.2336,-0.000641
2965.0972,-0.000607
2966.9609,-0.000664
2968.8246,-0.000537
2970.6883,-0.000391
2972.5519,-0.000407
2974.4156,-0.000615
2976.2793,-0.000451
2978.1429,-0.000454
2980.0066,-0.000894
2981.8703,-0.000613
2983.7339,-0.000357
2985.5976,-0.000435
2987.4613,-0.000334
2989.3249,-0.000487
2991.1886,-0.000626
2993.0523,-0.000570
2994.9160,-0.000359
2996.7796,-0.000205
2998.6433,-0.000295
3000.5070,-0.000246
3002.3706,-0.000364
3004.2343,-0.000354
3006.0980,-0.000031
3007.9616,-0.000069
3009.8253,-0.000489
3011.6890,-0.000457
3013.5526,-0.000372
3015.4163,-0.000439
3017.2800,-0.000245
3019.1436,-0.000131
3021.0073,-0.000154
3022.8710,-0.000233
3024.7347,-0.000294
3026.5983,-0.000189
3028.4620,-0.000088
3030.3257,-0.000185
3032.1893,-0.000482
3034.0530,-0.000829
3035.9167,-0.001095
3037.7803,-0.000810
3039.6440,-0.000180
3041.5077,-0.000325
3043.3713,-0.000694
3045.2350,-0.000533
3047.0987,-0.000317
3048.9624,-0.000246
3050.8260,-0.000236
3052.6897,-0.000404
3054.5534,-0.000359
3056.4170,-0.000249
3058.2807,-0.000468
3060.1444,-0.000429
3062.0080,0.000058
3063.8717,0.000086
3065.7354,-0.000706
3067.5990,-0.001153
3069.4627,-0.000657
3071.3264,-0.000161
3073.1900,-0.000125
3075.0537,-0.000056
3076.9174,0.000074
3078.7811,-0.000273
3080.6447,-0.000585
3082.5084,-0.000560
3084.3721,-0.000633
3086.2357,-0.000679
3088.0994,-0.000509
3089.9631,-0.000261
3091.8267,-0.000094
3093.6904,0.000369
3095.5541,0.000225
3097.4177,-0.000430
3099.2814,-0.000460
3101.1451,-0.000584
3103.0087,-0.000595
3104.8724,-0.000303
3106.7361,-0.000119
3108.5998,-0.000414
3110.4634,-0.000864
3112.3271,-0.000869
3114.1908,-0.000519
3116.0544,-0.000242
3117.9181,-0.000324
3119.7818,-0.000654
3121.6454,-0.000762
3123.5091,-0.000707
3125.3728,-0.000481
3127.2364,-0.000385
3129.1001,-0.000725
3130.9638,-0.000631
3132.8275,-0.000436
3134.6911,-0.000784
3136.5548,-0.001224
3138.4185,-0.001234
3140.2821,-0.000923
3142.1458,-0.000452
3144.0095,0.000039
3145.8731,-0.000366
3147.7368,-0.000492
3149.6005,0.000123
3151.4641,0.000149
3153.3278,-0.000059
3155.1915,-0.000785
3157.0551,-0.001001
3158.9188,-0.000266
3160.7825,0.000005
3162.6462,-0.000482
3164.5098,-0.000464
3166.3735,-0.000339
3168.2372,-0.000671
3170.1008,-0.000721
3171.9645,-0.000522
3173.8282,-0.000670
3175.6918,-0.000676
3177.5555,0.000241
3179.4192,0.000524
3181.2828,0.000182
3183.1465,0.000022
3185.0102,-0.000072
3186.8739,-0.000162
3188.7375,-0.000562
3190.6012,-0.001278
3192.4649,-0.001332
3194.3285,-0.000930
3196.1922,-0.000933
3198.0559,-0.001015
3199.9195,-0.000488
3201.7832,0.000039
3203.6469,-0.000177
3205.5105,-0.000555
3207.3742,-0.000797
3209.2379,-0.001022
3211.1015,-0.000654
3212.9652,-0.000383
3214.8289,-0.000680
3216.6926,-0.000748
3218.5562,-0.000670
3220.4199,-0.000349
3222.2836,0.000109
3224.1472,0.000142
3226.0109,-0.000229
3227.8746,-0.000550
3229.7382,-0.000560
3231.6019,-0.000588
3233.4656,-0.000825
3235.3292,-0.000777
3237.1929,-0.000176
3239.0566,-0.000215
3240.9202,-0.000184
3242.7839,-0.000216
3244.6476,-0.000390
3246.5113,-0.000044
3248.3749,-0.000006
3250.2386,-0.000735
3252.1023,-0.001026
3253.9659,-0.000589
3255.8296,-0.000486
3257.6933,-0.000684
3259.5569,-0.000400
3261.4206,-0.000325
3263.2843,-0.000522
3265.1479,-0.000639
3267.0116,-0.000492
3268.8753,-0.000959
3270.7390,-0.000921
3272.6026,-0.000215
3274.4663,0.000292
3276.3300,-0.000035
3278.1936,-0.000413
3280.0573,-0.000630
3281.9210,-0.000941
3283.7846,-0.000307
3285.6483,-0.000006
3287.5120,-0.000012
3289.3756,-0.000213
3291.2393,-0.000442
3293.1030,-0.000786
3294.9666,-0.001032
3296.8303,-0.000938
3298.6940,-0.000920
3300.5577,-0.001145
3302.4213,-0.000779
3304.2850,0.000460
3306.1487,0.000588
3308.0123,-0.000273
3309.8760,-0.001009
3311.7397,-0.001078
3313.6033,-0.000564
3315.4670,-0.000358
3317.3307,-0.000640
3319.1943,-0.000352
3321.0580,-0.000072
3322.9217,0.000327
3324.7854,0.000609
3326.6490,-0.000099
3328.5127,-0.001053
3330.3764,-0.001319
3332.2400,-0.001105
3334.1037,-0.000197
3335.9674,-0.000439
3337.8310,-0.001293
3339.6947,-0.000963
3341.5584,-0.000281
3343.4220,-0.000344
3345.2857,-0.000395
3347.1494,-0.000423
3349.0130,-0.000400
3350.8767,-0.000439
3352.7404,-0.000145
3354.6041,0.000401
3356.4677,0.000042
3358.3314,-0.000681
3360.1951,-0.000507
3362.0587,-0.000402
3363.9224,-0.000677
3365.7861,-0.000509
3367.6497,0.000022
3369.5134,-0.000278
3371.3771,-0.000354
3373.2407,0.000552
3375.1044,0.000478
3376.9681,-0.000634
3378.8317,-0.000726
3380.6954,0.000258
3382.5591,0.000730
3384.4228,0.000715
3386.2864,-0.000609
3388.1501,-0.001537
3390.0138,-0.000773
3391.8774,-0.000289
3393.7411,-0.000164
3395.6048,-0.001193
3397.4684,-0.002050
3399.3321,-0.001008
3401.1958,0.000051
3403.0594,-0.000405
3404.9231,-0.000636
3406.7868,0.000675
3408.6505,0.000981
3410.5141,-0.000187
3412.3778,-0.000417
3414.2415,-0.000048
3416.1051,-0.000314
3417.9688,-0.000255
3419.8325,-0.000204
3421.6961,-0.001386
3423.5598,-0.001354
3425.4235,-0.000948
3427.2871,-0.001299
3429.1508,-0.000349
3431.0145,0.000399
3432.8781,-0.000470
3434.7418,0.000000
3436.6055,0.001046
3438.4692,0.000690
3440.3328,-0.000111
3442.1965,-0.000152
3444.0602,0.000146
3445.9238,0.000388
3447.7875,-0.000201
3449.6512,-0.000626
3451.5148,-0.000133
3453.3785,-0.000374
3455.2422,-0.001286
3457.1058,-0.001374
3458.9695,-0.000027
3460.8332,0.000589
3462.6969,-0.000285
3464.5605,-0.001297
3466.4242,-0.001752
3468.2879,-0.001040
3470.1515,0.000248
3472.0152,0.000831
3473.8789,0.000572
3475.7425,-0.000672
3477.6062,-0.001684
3479.4699,-0.001455
3481.3335,-0.000877
3483.1972,-0.000380
3485.0609,0.000292
3486.9245,0.000991
3488.7882,0.000279
3490.6519,-0.000133
3492.5156,-0.000701
3494.3792,-0.000843
3496.2429,-0.001187
3498.1066,-0.001622
3499.9702,-0.000776
3501.8339,0.000533
3503.6976,0.000736
3505.5612,-0.000801
3507.4249,-0.001477
3509.2886,-0.000195
3511.1522,0.000517
3513.0159,0.000966
3514.8796,0.000877
3516.7432,0.000174
3518.6069,0.000008
3520.4706,0.000093
3522.3343,-0.000657
3524.1979,-0.001322
3526.0616,-0.000597
3527.9253,-0.000010
3529.7889,0.000033
3531.6526,-0.000596
3533.5163,-0.001070
3535.3799,-0.000110
3537.2436,0.000429
3539.1073,0.000301
3540.9709,-0.000083
3542.8346,-0.000070
3544.6983,-0.000424
3546.5620,-0.000751
3548.4256,-0.000275
3550.2893,0.000162
3552.1530,0.000021
3554.0166,0.000576
3555.8803,0.000008
3557.7440,-0.000585
3559.6076,0.000264
3561.4713,0.000611
3563.3350,-0.000118
3565.1986,-0.000939
3567.0623,0.000136
3568.9260,0.001006
3570.7896,0.000488
3572.6533,-0.000473
3574.5170,-0.000331
3576.3807,-0.000764
3578.2443,-0.000418
3580.1080,0.000166
3581.9717,-0.000639
3583.8353,-0.000089
3585.6990,0.000519
3587.5627,0.000967
3589.4263,0.000947
3591.2900,0.000516
3593.1537,-0.000355
3595.0173,-0.001280
3596.8810,-0.001013
3598.7447,-0.000436
3600.6084,0.000144
3602.4720,0.000357
3604.3357,-0.000347
3606.1994,-0.000890
3608.0630,-0.000404
3609.9267,0.000400
3611.7904,0.000004
3613.6540,-0.000623
3615.5177,-0.000507
3617.3814,0.000109
3619.2450,-0.000243
3621.1087,-0.000560
3622.9724,0.000158
3624.8360,-0.000113
3626.6997,-0.000559
3628.5634,-0.000503
3630.4271,-0.000554
3632.2907,-0.000063
3634.1544,0.000198
3636.0181,0.000022
3637.8817,-0.000422
3639.7454,-0.000360
3641.6091,0.000202
3643.4727,0.000553
3645.3364,0.000761
3647.2001,0.000129
3649.0637,-0.000960
3650.9274,-0.001393
3652.7911,-0.000901
3654.6547,-0.000825
3656.5184,-0.001087
3658.3821,-0.000632
3660.2458,-0.000025
3662.1094,-0.000066
3663.9731,-0.000191
3665.8368,-0.000618
3667.7004,-0.000568
3669.5641,0.000124
3671.4278,0.000254
3673.2914,0.000362
3675.1551,0.000341
3677.0188,-0.000482
3678.8824,-0.000890
3680.7461,-0.001151
3682.6098,-0.000569
3684.4735,-0.000098
3686.3371,-0.000262
3688.2008,-0.000643
3690.0645,-0.001210
3691.9281,-0.000641
3693.7918,-0.000714
3695.6555,-0.001281
3697.5191,-0.000891
3699.3828,-0.000206
3701.2465,-0.000506
3703.1101,-0.000652
3704.9738,-0.000475
3706.8375,-0.000329
3708.7011,0.000179
3710.5648,0.000137
3712.4285,0.000012
3714.2922,-0.000450
3716.1558,-0.000646
3718.0195,-0.000328
3719.8832,-0.000771
3721.7468,-0.000985
3723.6105,-0.000369
3725.4742,0.000371
3727.3378,0.000607
3729.2015,0.000623
3731.0652,0.000094
3732.9288,-0.000608
3734.7925,-0.000632
3736.6562,-0.000398
3738.5199,-0.000083
3740.3835,0.000307
3742.2472,0.000273
3744.1109,-0.000034
3745.9745,-0.000271
3747.8382,-0.000659
3749.7019,-0.000892
3751.5655,-0.000450
3753.4292,-0.000049
3755.2929,-0.000137
3757.1565,-0.000298
3759.0202,-0.000175
3760.8839,-0.000594
3762.7475,-0.001069
3764.6112,-0.000636
3766.4749,0.000141
3768.3386,0.000071
3770.2022,-0.000443
3772.0659,-0.000781
3773.9296,-0.000272
3775.7932,0.000025
3777.6569,0.000128
3779.5206,0.000075
3781.3842,-0.000421
3783.2479,-0.000194
3785.1116,-0.000486
3786.9752,-0.000870
3788.8389,-0.000379
3790.7026,-0.000197
3792.5662,-0.000703
3794.4299,-0.000646
3796.2936,0.000301
3798.1573,0.000617
3800.0209,0.000214
3801.8846,-0.000311
3803.7483,-0.000634
3805.6119,-0.000473
3807.4756,-0.001161
3809.3393,-0.001306
3811.2029,-0.000581
3813.0666,-0.000603
3814.9303,-0.000240
3816.7939,0.000345
3818.6576,0.000239
3820.5213,-0.000803
3822.3850,-0.001279
3824.2486,-0.000505
3826.1123,-0.000790
3827.9760,-0.000501
3829.8396,0.000457
3831.7033,0.000438
3833.5670,0.000020
3835.4306,0.000017
3837.2943,0.000165
3839.1580,0.000307
3841.0216,-0.000349
3842.8853,0.000077
3844.7490,0.000128
3846.6126,-0.000982
3848.4763,-0.001197
3850.3400,-0.000771
3852.2037,-0.000473
3854.0673,-0.000004
3855.9310,0.000045
3857.7947,-0.000405
3859.6583,-0.000645
3861.5220,-0.000429
3863.3857,-0.000501
3865.2493,-0.000103
3867.1130,0.000245
3868.9767,-0.000158
3870.8403,-0.000315
3872.7040,0.000251
3874.5677,0.000627
3876.4314,0.000111
3878.2950,-0.000494
3880.1587,-0.000427
3882.0224,-0.000495
3883.8860,-0.000735
3885.7497,-0.000594
3887.6134,-0.000630
3889.4770,-0.000449
3891.3407,-0.000667
3893.2044,-0.000690
3895.0680,-0.000368
3896.9317,-0.000135
3898.7954,-0.000179
3900.6590,-0.001225
3902.5227,-0.001773
3904.3864,-0.001260
3906.2501,-0.000500
3908.1137,-0.000139
3909.9774,0.000038
3911.8411,0.000425
3913.7047,-0.000205
3915.5684,-0.000488
3917.4321,0.000173
3919.2957,-0.000292
3921.1594,-0.000916
3923.0231,-0.000923
3924.8867,-0.000373
3926.7504,-0.000198
3928.6141,-0.000404
3930.4777,-0.000593
3932.3414,-0.000703
3934.2051,-0.000219
3936.0688,0.000112
3937.9324,-0.000115
3939.7961,-0.000325
3941.6598,-0.000142
3943.5234,-0.000005
3945.3871,0.000018
3947.2508,-0.000011
3949.1144,-0.000218
3950.9781,-0.000258
3952.8418,-0.000581
3954.7054,-0.000466
3956.5691,0.000044
3958.4328,0.000021
3960.2965,-0.000447
3962.1601,-0.000625
3964.0238,-0.000823
3965.8875,-0.000535
3967.7511,-0.000145
3969.6148,-0.000291
3971.4785,-0.000742
3973.3421,-0.000658
3975.2058,-0.000736
3977.0695,-0.000527
3978.9331,-0.000103
3980.7968,-0.000095
3982.6605,0.000135
3984.5241,0.000157
3986.3878,-0.000303
3988.2515,-0.000753
3990.1152,-0.000578
3991.9788,-0.000236
3993.8425,-0.000608
3995.7062,-0.000711
3997.5698,-0.000573
3999.4335,-0.000624
4001.2972,-0.000074
4003.1608,-0.000118
4005.0245,-0.001030
4006.8882,-0.001333
4008.7518,-0.000622
4010.6155,-0.000368
4012.4792,-0.000605
4014.3429,-0.000478
4016.2065,-0.000194
4018.0702,0.000182
4019.9339,-0.000084
4021.7975,-0.001096
4023.6612,-0.001214
4025.5249,-0.000915
4027.3885,-0.001121
4029.2522,-0.001216
4031.1159,-0.000743
4032.9795,0.000211
4034.8432,0.000572
4036.7069,-0.000033
4038.5705,-0.000751
4040.4342,-0.000634
4042.2979,-0.000454
4044.1616,-0.000525
4046.0252,-0.000742
4047.8889,-0.000438
4049.7526,-0.000134
4051.6162,-0.000170
4053.4799,-0.000439
4055.3436,-0.000356
4057.2072,0.000048
4059.0709,-0.000325
4060.9346,-0.000435
4062.7982,-0.000043
4064.6619,-0.000331
4066.5256,-0.000514
4068.3892,-0.000587
4070.2529,-0.000482
4072.1166,-0.000059
4073.9803,0.000143
4075.8439,-0.000344
4077.7076,-0.000535
4079.5713,-0.000207
4081.4349,-0.000609
4083.2986,-0.000899
4085.1623,-0.001015
4087.0259,-0.000963
4088.8896,-0.000491
4090.7533,-0.000541
4092.6169,-0.000619
4094.4806,-0.000559
4096.3443,-0.000400
4098.2080,-0.000061
4100.0716,-0.000095
