Wavenumber,Intensity
600.1014,0.008908
601.9651,0.005881
603.8287,0.001464
605.6924,0.003389
607.5561,-0.000165
609.4197,-0.005565
611.2834,-0.007250
613.1471,-0.008872
615.0107,-0.001041
616.8744,0.001709
618.7381,-0.003678
620.6017,0.001740
622.4654,0.004474
624.3291,-0.001695
626.1928,-0.001726
628.0564,0.002452
629.9201,0.001922
631.7838,0.002242
633.6474,0.001122
635.5111,-0.000453
637.3748,-0.001781
639.2384,-0.002384
641.1021,0.000197
642.9658,0.001495
644.8294,0.001314
646.6931,0.000415
648.5568,-0.000106
650.4205,0.000914
652.2841,0.000440
654.1478,0.000684
656.0115,0.001513
657.8751,-0.000485
659.7388,-0.001875
661.6025,-0.000018
663.4661,0.000606
665.3298,0.000400
667.1935,0.001993
669.0571,0.002201
670.9208,0.001287
672.7845,0.001135
674.6481,0.001069
676.5118,0.000253
678.3755,-0.001024
680.2392,-0.000371
682.1028,0.000624
683.9665,0.000703
685.8302,0.000413
687.6938,0.000241
689.5575,0.000398
691.4212,0.000632
693.2848,0.000638
695.1485,0.001349
697.0122,0.001306
698.8758,0.000596
700.7395,0.000794
702.6032,0.000844
704.4669,0.000242
706.3305,0.001149
708.1942,0.001517
710.0579,0.000827
711.9215,0.000116
713.7852,-0.000042
715.6489,0.000457
717.5125,0.001069
719.3762,0.001186
721.2399,0.000940
723.1035,0.000655
724.9672,0.000759
726.8309,0.000788
728.6945,0.000657
730.5582,0.000311
732.4219,0.000342
734.2856,0.000520
736.1492,0.000321
738.0129,0.000316
739.8766,0.000449
741.7402,0.000433
743.6039,0.000628
745.4676,0.000655
747.3312,0.000586
749.1949,0.000786
751.0586,0.000735
752.9222,0.000563
754.7859,0.000962
756.6496,0.001246
758.5132,0.000678
760.3769,0.000444
762.2406,0.000631
764.1043,0.000802
765.9679,0.000741
767.8316,0.000808
769.6953,0.000928
771.5589,0.000974
773.4226,0.000915
775.2863,0.000894
777.1499,0.001271
779.0136,0.001365
780.8773,0.001145
782.7409,0.001151
784.6046,0.000912
786.4683,0.000476
788.3320,0.000468
790.1956,0.000776
792.0593,0.000816
793.9230,0.000825
795.7866,0.001055
797.6503,0.001262
799.5140,0.001312
801.3776,0.001200
803.2413,0.000846
805.1050,0.000464
806.9686,0.000421
808.8323,0.000231
810.6960,0.000082
812.5596,0.000022
814.4233,0.000037
816.2870,0.000147
818.1507,0.000093
820.0143,-0.000031
821.8780,-0.000005
823.7417,0.000087
825.6053,0.000036
827.4690,0.000125
829.3327,0.000194
831.1963,0.000008
833.0600,0.000038
834.9237,0.000175
836.7873,0.000213
838.6510,0.000339
840.5147,0.000225
842.3784,-0.000030
844.2420,0.000073
846.1057,0.000313
847.9694,0.000445
849.8330,0.000339
851.6967,0.000076
853.5604,0.000179
855.4240,0.000440
857.2877,0.000294
859.1514,0.000044
861.0150,0.000161
862.8787,0.000357
864.7424,0.000245
866.6060,0.000213
868.4697,0.000300
870.3334,0.000230
872.1971,0.000126
874.0607,0.000249
875.9244,0.000340
877.7881,0.000279
879.6517,0.000252
881.5154,0.000329
883.3791,0.000396
885.2427,0.000564
887.1064,0.000510
888.9701,0.000316
890.8337,0.000282
892.6974,0.000256
894.5611,0.000256
896.4247,0.000337
898.2884,0.000352
900.1521,0.000354
902.0158,0.000312
903.8794,0.000321
905.7431,0.000323
907.6068,0.000317
909.4704,0.000279
911.3341,0.000331
913.1978,0.000325
915.0614,0.000282
916.9251,0.000461
918.7888,0.000465
920.6524,0.000277
922.5161,0.000304
924.3798,0.000453
926.2435,0.000496
928.1071,0.000471
929.9708,0.000502
931.8345,0.000488
933.6981,0.000410
935.5618,0.000349
937.4255,0.000338
939.2891,0.000366
941.1528,0.000360
943.0165,0.000331
944.8801,0.000349
946.7438,0.000478
948.6075,0.000551
950.4711,0.000441
952.3348,0.000357
954.1985,0.000456
956.0622,0.000558
957.9258,0.000475
959.7895,0.000409
961.6532,0.000459
963.5168,0.000553
965.3805,0.000554
967.2442,0.000390
969.1078,0.000362
970.9715,0.000536
972.8352,0.000599
974.6988,0.000536
976.5625,0.000481
978.4262,0.000492
980.2899,0.000639
982.1535,0.000711
984.0172,0.000676
985.8809,0.000747
987.7445,0.000760
989.6082,0.000644
991.4719,0.000541
993.3355,0.000546
995.1992,0.000613
997.0629,0.000715
998.9265,0.000742
1000.7902,0.000665
1002.6539,0.000620
1004.5175,0.000641
1006.3812,0.000671
1008.2449,0.000628
1010.1086,0.000643
1011.9722,0.000734
1013.8359,0.000755
1015.6996,0.000773
1017.5632,0.000814
1019.4269,0.000762
1021.2906,0.000788
1023.1542,0.000937
1025.0179,0.001024
1026.8816,0.000959
1028.7452,0.000887
1030.6089,0.000901
1032.4726,0.000941
1034.3362,0.001010
1036.1999,0.001103
1038.0636,0.001107
1039.9273,0.001158
1041.7909,0.001139
1043.6546,0.001102
1045.5183,0.001174
1047.3819,0.001244
1049.2456,0.001295
1051.1093,0.001257
1052.9729,0.001239
1054.8366,0.001260
1056.7003,0.001266
1058.5639,0.001273
1060.4276,0.001269
1062.2913,0.001243
1064.1550,0.001206
1066.0186,0.001189
1067.8823,0.001197
1069.7460,0.001257
1071.6096,0.001271
1073.4733,0.001219
1075.3370,0.001216
1077.2006,0.001247
1079.0643,0.001280
1080.9280,0.001354
1082.7916,0.001379
1084.6553,0.001311
1086.5190,0.001306
1088.3826,0.001289
1090.2463,0.001255
1092.1100,0.001264
1093.9737,0.001249
1095.8373,0.001227
1097.7010,0.001195
1099.5647,0.001214
1101.4283,0.001201
1103.2920,0.001121
1105.1557,0.001055
1107.0193,0.001101
1108.8830,0.001160
1110.7467,0.001039
1112.6103,0.000904
1114.4740,0.000986
1116.3377,0.001077
1118.2014,0.001051
1120.0650,0.001014
1121.9287,0.000959
1123.7924,0.000923
1125.6560,0.000872
1127.5197,0.000775
1129.3834,0.000725
1131.2470,0.000712
1133.1107,0.000646
1134.9744,0.000668
1136.8380,0.000742
1138.7017,0.000636
1140.5654,0.000585
1142.4290,0.000650
1144.2927,0.000619
1146.1564,0.000569
1148.0201,0.000573
1149.8837,0.000551
1151.7474,0.000477
1153.6111,0.000421
1155.4747,0.000369
1157.3384,0.000384
1159.2021,0.000399
1161.0657,0.000459
1162.9294,0.000530
1164.7931,0.000516
1166.6567,0.000448
1168.5204,0.000426
1170.3841,0.000427
1172.2477,0.000326
1174.1114,0.000211
1175.9751,0.000201
1177.8388,0.000273
1179.7024,0.000277
1181.5661,0.000252
1183.4298,0.000261
1185.2934,0.000222
1187.1571,0.000108
1189.0208,0.000081
1190.8844,0.000117
1192.7481,0.000130
1194.6118,0.000100
1196.4754,0.000055
1198.3391,0.000004
1200.2028,-0.000014
1202.0665,-0.000032
1203.9301,-0.000028
1205.7938,-0.000019
1207.6575,0.000017
1209.5211,-0.000038
1211.3848,-0.000112
1213.2485,-0.000140
1215.1121,-0.000177
1216.9758,-0.000156
1218.8395,-0.000145
1220.7031,-0.000146
1222.5668,-0.000182
1224.4305,-0.000284
1226.2941,-0.000337
1228.1578,-0.000316
1230.0215,-0.000265
1231.8852,-0.000200
1233.7488,-0.000188
1235.6125,-0.000289
1237.4762,-0.000360
1239.3398,-0.000351
1241.2035,-0.000311
1243.0672,-0.000313
1244.9308,-0.000383
1246.7945,-0.000353
1248.6582,-0.000335
1250.5218,-0.000397
1252.3855,-0.000346
1254.2492,-0.000288
1256.1129,-0.000344
1257.9765,-0.000428
1259.8402,-0.000478
1261.7039,-0.000458
1263.5675,-0.000406
1265.4312,-0.000427
1267.2949,-0.000499
1269.1585,-0.000497
1271.0222,-0.000514
1272.8859,-0.000447
1274.7495,-0.000338
1276.6132,-0.000346
1278.4769,-0.000352
1280.3405,-0.000293
1282.2042,-0.000348
1284.0679,-0.000407
1285.9316,-0.000442
1287.7952,-0.000489
1289.6589,-0.000520
1291.5226,-0.000491
1293.3862,-0.000459
1295.2499,-0.000462
1297.1136,-0.000477
1298.9772,-0.000448
1300.8409,-0.000389
1302.7046,-0.000452
1304.5682,-0.000575
1306.4319,-0.000575
1308.2956,-0.000550
1310.1592,-0.000512
1312.0229,-0.000474
1313.8866,-0.000502
1315.7503,-0.000473
1317.6139,-0.000431
1319.4776,-0.000407
1321.3413,-0.000388
1323.2049,-0.000411
1325.0686,-0.000431
1326.9323,-0.000461
1328.7959,-0.000427
1330.6596,-0.000470
1332.5233,-0.000564
1334.3869,-0.000494
1336.2506,-0.000414
1338.1143,-0.000471
1339.9780,-0.000558
1341.8416,-0.000540
1343.7053,-0.000551
1345.5690,-0.000537
1347.4326,-0.000515
1349.2963,-0.000545
1351.1600,-0.000491
1353.0236,-0.000453
1354.8873,-0.000461
1356.7510,-0.000468
1358.6146,-0.000461
1360.4783,-0.000455
1362.3420,-0.000470
1364.2056,-0.000457
1366.0693,-0.000506
1367.9330,-0.000589
1369.7967,-0.000592
1371.6603,-0.000495
1373.5240,-0.000410
1375.3877,-0.000532
1377.2513,-0.000580
1379.1150,-0.000506
1380.9787,-0.000553
1382.8423,-0.000586
1384.7060,-0.000523
1386.5697,-0.000415
1388.4333,-0.000514
1390.2970,-0.000585
1392.1607,-0.000512
1394.0244,-0.000453
1395.8880,-0.000527
1397.7517,-0.000462
1399.6154,-0.000420
1401.4790,-0.000518
1403.3427,-0.000482
1405.2064,-0.000534
1407.0700,-0.000660
1408.9337,-0.000588
1410.7974,-0.000470
1412.6610,-0.000459
1414.5247,-0.000417
1416.3884,-0.000344
1418.2520,-0.000465
1420.1157,-0.000763
1421.9794,-0.000739
1423.8431,-0.000546
1425.7067,-0.000566
1427.5704,-0.000581
1429.4341,-0.000528
1431.2977,-0.000643
1433.1614,-0.000723
1435.0251,-0.000453
1436.8887,-0.000390
1438.7524,-0.000716
1440.6161,-0.000657
1442.4797,-0.000593
1444.3434,-0.000591
1446.2071,-0.000536
1448.0707,-0.000510
1449.9344,-0.000633
1451.7981,-0.000667
1453.6618,-0.000468
1455.5254,-0.000175
1457.3891,-0.000286
1459.2528,-0.000749
1461.1164,-0.000732
1462.9801,-0.000450
1464.8438,-0.000462
1466.7074,-0.000772
1468.5711,-0.000690
1470.4348,-0.000438
1472.2984,-0.000302
1474.1621,-0.000526
1476.0258,-0.000550
1477.8895,-0.000636
1479.7531,-0.000717
1481.6168,-0.000672
1483.4805,-0.000586
1485.3441,-0.000449
1487.2078,-0.000316
1489.0715,-0.000348
1490.9351,-0.000519
1492.7988,-0.000540
1494.6625,-0.000339
1496.5261,-0.000298
1498.3898,-0.000528
1500.2535,-0.000579
1502.1171,-0.000586
1503.9808,-0.000472
1505.8445,-0.000131
1507.7082,-0.000307
1509.5718,-0.000620
1511.4355,-0.000571
1513.2992,-0.000543
1515.1628,-0.000448
1517.0265,-0.000425
1518.8902,-0.000593
1520.7538,-0.000436
1522.6175,-0.000645
1524.4812,-0.000578
1526.3448,-0.000439
1528.2085,-0.000631
1530.0722,-0.000589
1531.9359,-0.000468
1533.7995,-0.000559
1535.6632,-0.000719
1537.5269,-0.000426
1539.3905,-0.000189
1541.2542,-0.000577
1543.1179,-0.000732
1544.9815,-0.000697
1546.8452,-0.000757
1548.7089,-0.000602
1550.5725,-0.000569
1552.4362,-0.000676
1554.2999,-0.000590
1556.1635,-0.000414
1558.0272,0.000352
1559.8909,-0.000057
1561.7546,-0.000895
1563.6182,-0.000842
1565.4819,-0.000727
1567.3456,-0.000648
1569.2092,-0.000602
1571.0729,-0.000867
1572.9366,-0.000753
1574.8002,-0.000429
1576.6639,-0.000498
1578.5276,-0.000681
1580.3912,-0.000510
1582.2549,-0.000391
1584.1186,-0.000460
1585.9822,-0.000514
1587.8459,-0.000507
1589.7096,-0.000643
1591.5733,-0.000756
1593.4369,-0.000659
1595.3006,-0.000644
1597.1643,-0.000797
1599.0279,-0.000847
1600.8916,-0.000806
1602.7553,-0.000796
1604.6189,-0.000724
1606.4826,-0.000527
1608.3463,-0.000503
1610.2099,-0.000733
1612.0736,-0.000748
1613.9373,-0.000638
1615.8010,-0.000467
1617.6646,-0.000540
1619.5283,-0.000641
1621.3920,-0.000639
1623.2556,-0.000825
1625.1193,-0.000857
1626.9830,-0.000571
1628.8466,-0.000449
1630.7103,-0.000644
1632.5740,-0.000763
1634.4376,-0.000593
1636.3013,-0.000619
1638.1650,-0.000924
1640.0286,-0.000970
1641.8923,-0.000951
1643.7560,-0.000679
1645.6197,-0.000439
1647.4833,-0.000841
1649.3470,-0.000796
1651.2107,-0.000084
1653.0743,-0.000015
1654.9380,-0.001125
1656.8017,-0.000930
1658.6653,-0.000659
1660.5290,-0.000680
1662.3927,-0.000756
1664.2563,-0.000809
1666.1200,-0.000669
1667.9837,-0.000490
1669.8474,-0.000525
1671.7110,-0.000630
1673.5747,-0.000544
1675.4384,-0.000707
1677.3020,-0.000991
1679.1657,-0.000728
1681.0294,-0.000575
1682.8930,-0.000465
1684.7567,-0.000597
1686.6204,-0.000864
1688.4840,-0.000596
1690.3477,-0.000692
1692.2114,-0.000747
1694.0750,-0.000501
1695.9387,-0.000499
1697.8024,-0.000623
1699.6661,-0.000148
1701.5297,-0.000679
1703.3934,-0.000875
1705.2571,-0.000720
1707.1207,-0.000983
1708.9844,-0.000987
1710.8481,-0.000839
1712.7117,-0.000732
1714.5754,-0.000651
1716.4391,-0.000361
1718.3027,-0.000310
1720.1664,-0.000723
1722.0301,-0.000598
1723.8937,-0.000515
1725.7574,-0.000676
1727.6211,-0.000692
1729.4848,-0.000572
1731.3484,-0.000495
1733.2121,-0.000299
1735.0758,-0.000513
1736.9394,-0.000817
1738.8031,-0.000801
1740.6668,-0.000745
1742.5304,-0.000549
1744.3941,-0.000557
1746.2578,-0.000606
1748.1214,-0.000562
1749.9851,-0.000676
1751.8488,-0.000752
1753.7125,-0.000725
1755.5761,-0.000711
1757.4398,-0.000798
1759.3035,-0.000764
1761.1671,-0.000696
1763.0308,-0.000838
1764.8945,-0.000929
1766.7581,-0.000819
1768.6218,-0.000653
1770.4855,-0.000512
1772.3491,-0.000399
1774.2128,-0.000765
1776.0765,-0.000925
1777.9401,-0.000831
1779.8038,-0.000654
1781.6675,-0.000655
1783.5312,-0.000696
1785.3948,-0.000791
1787.2585,-0.000881
1789.1222,-0.000694
1790.9858,-0.000566
1792.8495,-0.000848
1794.7132,-0.001017
1796.5768,-0.000788
1798.4405,-0.000479
1800.3042,-0.000470
1802.1678,-0.000741
1804.0315,-0.000779
1805.8952,-0.000693
1807.7589,-0.000591
1809.6225,-0.000564
1811.4862,-0.000647
1813.3499,-0.000800
1815.2135,-0.000805
1817.0772,-0.000555
1818.9409,-0.000541
1820.8045,-0.000716
1822.6682,-0.000777
1824.5319,-0.000782
1826.3955,-0.000728
1828.2592,-0.000662
1830.1229,-0.000793
1831.9865,-0.000983
1833.8502,-0.000775
1835.7139,-0.000855
1837.5776,-0.001002
1839.4412,-0.000783
1841.3049,-0.000461
1843.1686,-0.000408
1845.0322,-0.000732
1846.8959,-0.000806
1848.7596,-0.000768
1850.6232,-0.000887
1852.4869,-0.000837
1854.3506,-0.000889
1856.2142,-0.000932
1858.0779,-0.000896
1859.9416,-0.000990
1861.8052,-0.000875
1863.6689,-0.000727
1865.5326,-0.000626
1867.3963,-0.000376
1869.2599,-0.000411
1871.1236,-0.000727
1872.9873,-0.000808
1874.8509,-0.000719
1876.7146,-0.000890
1878.5783,-0.001030
1880.4419,-0.000819
1882.3056,-0.000593
1884.1693,-0.000612
1886.0329,-0.000673
1887.8966,-0.000687
1889.7603,-0.000842
1891.6240,-0.001059
1893.4876,-0.000973
1895.3513,-0.000826
1897.2150,-0.000750
1899.0786,-0.000610
1900.9423,-0.000758
1902.8060,-0.001077
1904.6696,-0.000943
1906.5333,-0.000553
1908.3970,-0.000559
1910.2606,-0.001013
1912.1243,-0.001136
1913.9880,-0.000866
1915.8516,-0.000721
1917.7153,-0.000945
1919.5790,-0.000658
1921.4427,-0.000337
1923.3063,-0.000717
1925.1700,-0.000831
1927.0337,-0.000567
1928.8973,-0.000623
1930.7610,-0.000694
1932.6247,-0.000561
1934.4883,-0.000577
1936.3520,-0.000577
1938.2157,-0.000251
1940.0793,-0.000368
1941.9430,-0.001082
1943.8067,-0.001254
1945.6704,-0.000858
1947.5340,-0.000524
1949.3977,-0.000495
1951.2614,-0.000548
1953.1250,-0.001057
1954.9887,-0.000853
1956.8524,-0.000534
1958.7160,-0.000679
1960.5797,-0.000455
1962.4434,-0.000893
1964.3070,-0.001027
1966.1707,-0.000484
1968.0344,-0.000735
1969.8980,-0.000407
1971.7617,0.000285
1973.6254,-0.000246
1975.4891,-0.000933
1977.3527,-0.000832
1979.2164,-0.000607
1981.0801,-0.000479
1982.9437,-0.000481
1984.8074,-0.000364
1986.6711,-0.000229
1988.5347,-0.000466
1990.3984,-0.000601
1992.2621,-0.000548
1994.1257,-0.000492
1995.9894,-0.000440
1997.8531,-0.000567
1999.7167,-0.000944
2001.5804,-0.000502
2003.4441,-0.000102
2005.3078,-0.001052
2007.1714,-0.001443
2009.0351,-0.001000
2010.8988,-0.001109
2012.7624,-0.001358
2014.6261,-0.000596
2016.4898,-0.000068
2018.3534,-0.000433
2020.2171,-0.000369
2022.0808,-0.000094
2023.9444,-0.000123
2025.8081,-0.000936
2027.6718,-0.001529
2029.5355,-0.000818
2031.3991,-0.000208
2033.2628,-0.000470
2035.1265,-0.000902
2036.9901,-0.001167
2038.8538,-0.001060
2040.7175,-0.000692
2042.5811,-0.000686
2044.4448,-0.000640
2046.3085,-0.000547
2048.1721,-0.000635
2050.0358,-0.001028
2051.8995,-0.001361
2053.7631,-0.000597
2055.6268,-0.000283
2057.4905,-0.001261
2059.3542,-0.001487
2061.2178,-0.001017
2063.0815,-0.000685
2064.9452,-0.000702
2066.8088,-0.001166
2068.6725,-0.001243
2070.5362,-0.000941
2072.3998,-0.001004
2074.2635,-0.001294
2076.1272,-0.001134
2077.9908,-0.000636
2079.8545,-0.000488
2081.7182,-0.000670
2083.5819,-0.000890
2085.4455,-0.000786
2087.3092,-0.000659
2089.1729,-0.000601
2091.0365,-0.000435
2092.9002,-0.000782
2094.7639,-0.001069
2096.6275,-0.000970
2098.4912,-0.001042
2100.3549,-0.000902
2102.2185,-0.000630
2104.0822,-0.000589
2105.9459,-0.000541
2107.8095,-0.000319
2109.6732,-0.000467
2111.5369,-0.000882
2113.4006,-0.000743
2115.2642,-0.000793
2117.1279,-0.001313
2118.9916,-0.001387
2120.8552,-0.001147
2122.7189,-0.000986
2124.5826,-0.000780
2126.4462,-0.000471
2128.3099,-0.000448
2130.1736,-0.000564
2132.0372,-0.000765
2133.9009,-0.000990
2135.7646,-0.001381
2137.6282,-0.001406
2139.4919,-0.000573
2141.3556,-0.000723
2143.2193,-0.000752
2145.0829,-0.000188
2146.9466,-0.000787
2148.8103,-0.000864
2150.6739,-0.000058
2152.5376,0.000045
2154.4013,-0.000613
2156.2649,-0.001579
2158.1286,-0.001528
2159.9923,-0.000452
2161.8559,-0.000759
2163.7196,-0.001611
2165.5833,-0.000851
2167.4470,-0.000330
2169.3106,-0.001019
2171.1743,-0.001187
2173.0380,-0.000772
2174.9016,-0.000455
2176.7653,-0.000180
2178.6290,-0.000377
2180.4926,-0.001006
2182.3563,-0.001162
2184.2200,-0.000621
2186.0836,-0.000674
2187.9473,-0.000972
2189.8110,-0.000355
2191.6746,0.000276
2193.5383,-0.000073
2195.4020,-0.000790
2197.2657,-0.000826
2199.1293,-0.000609
2200.9930,-0.000729
2202.8567,-0.001148
2204.7203,-0.000927
2206.5840,0.000019
2208.4477,0.000185
2210.3113,-0.000594
2212.1750,-0.000994
2214.0387,-0.001139
2215.9023,-0.001317
2217.7660,-0.001255
2219.6297,-0.001634
2221.4934,-0.001922
2223.3570,-0.001507
2225.2207,-0.001111
2227.0844,-0.000857
2228.9480,-0.000982
2230.8117,-0.000888
2232.6754,-0.000556
2234.5390,-0.000933
2236.4027,-0.000950
2238.2664,-0.000943
2240.1300,-0.001301
2241.9937,-0.001148
2243.8574,-0.001095
2245.7210,-0.001111
2247.5847,-0.001033
2249.4484,-0.001080
2251.3121,-0.001167
2253.1757,-0.001547
2255.0394,-0.001807
2256.9031,-0.001298
2258.7667,-0.000566
2260.6304,-0.000197
2262.4941,-0.000443
2264.3577,-0.000974
2266.2214,-0.000853
2268.0851,-0.000535
2269.9487,-0.000534
2271.8124,-0.000816
2273.6761,-0.000972
2275.5397,-0.000913
2277.4034,-0.000624
2279.2671,-0.000463
2281.1308,-0.000926
2282.9944,-0.001037
2284.8581,-0.000767
2286.7218,-0.000830
2288.5854,-0.000844
2290.4491,-0.000823
2292.3128,-0.000870
2294.1764,-0.000684
2296.0401,-0.000599
2297.9038,-0.000640
2299.7674,-0.000641
2301.6311,-0.000786
2303.4948,-0.000844
2305.3585,-0.000724
2307.2221,-0.000462
2309.0858,-0.000208
2310.9495,-0.000256
2312.8131,-0.000236
2314.6768,-0.000082
2316.5405,0.000073
2318.4041,0.000084
2320.2678,0.000096
2322.1315,0.000533
2323.9951,0.000584
2325.8588,0.000247
2327.7225,0.000067
2329.5861,0.000077
2331.4498,0.000499
2333.3135,0.000674
2335.1772,0.000527
2337.0408,0.000826
2338.9045,0.001240
2340.7682,0.001268
2342.6318,0.001028
2344.4955,0.000606
2346.3592,-0.000055
2348.2228,-0.000325
2350.0865,-0.000040
2351.9502,0.000460
2353.8138,0.000980
2355.6775,0.001277
2357.5412,0.001589
2359.4049,0.001870
2361.2685,0.001575
2363.1322,0.000966
2364.9959,0.000575
2366.8595,0.000544
2368.7232,0.000466
2370.5869,0.000409
2372.4505,0.000478
2374.3142,0.000343
2376.1779,0.000208
2378.0415,-0.000096
2379.9052,-0.000517
2381.7689,-0.000719
2383.6325,-0.000909
2385.4962,-0.000987
2387.3599,-0.000878
2389.2236,-0.000928
2391.0872,-0.000886
2392.9509,-0.000792
2394.8146,-0.001066
2396.6782,-0.001103
2398.5419,-0.000866
2400.4056,-0.000880
2402.2692,-0.001127
2404.1329,-0.001352
2405.9966,-0.001189
2407.8602,-0.000477
2409.7239,-0.000321
2411.5876,-0.000990
2413.4512,-0.001334
2415.3149,-0.001244
2417.1786,-0.001066
2419.0423,-0.001129
2420.9059,-0.001037
2422.7696,-0.000780
2424.6333,-0.000987
2426.4969,-0.001156
2428.3606,-0.001171
2430.2243,-0.001383
2432.0879,-0.001613
2433.9516,-0.001345
2435.8153,-0.000832
2437.6789,-0.000981
2439.5426,-0.001423
2441.4063,-0.001222
2443.2700,-0.000711
2445.1336,-0.000606
2446.9973,-0.000887
2448.8610,-0.001131
2450.7246,-0.001296
2452.5883,-0.001393
2454.4520,-0.001030
2456.3156,-0.000811
2458.1793,-0.000977
2460.0430,-0.000835
2461.9066,-0.000790
2463.7703,-0.001094
2465.6340,-0.001226
2467.4976,-0.001104
2469.3613,-0.001218
2471.2250,-0.001467
2473.0887,-0.001345
2474.9523,-0.000853
2476.8160,-0.000499
2478.6797,-0.000781
2480.5433,-0.001188
2482.4070,-0.001406
2484.2707,-0.001367
2486.1343,-0.001150
2487.9980,-0.001154
2489.8617,-0.001364
2491.7253,-0.001188
2493.5890,-0.000612
2495.4527,-0.000486
2497.3164,-0.000598
2499.1800,-0.000860
2501.0437,-0.001201
2502.9074,-0.001317
2504.7710,-0.001391
2506.6347,-0.001201
2508.4984,-0.000946
2510.3620,-0.000956
2512.2257,-0.001033
2514.0894,-0.001103
2515.9530,-0.001085
2517.8167,-0.000809
2519.6804,-0.000677
2521.5440,-0.000868
2523.4077,-0.001047
2525.2714,-0.000936
2527.1351,-0.000719
2528.9987,-0.000908
2530.8624,-0.001086
2532.7261,-0.001177
2534.5897,-0.001224
2536.4534,-0.001176
2538.3171,-0.001286
2540.1807,-0.001085
2542.0444,-0.001113
2543.9081,-0.001403
2545.7717,-0.001015
2547.6354,-0.000473
2549.4991,-0.000586
2551.3627,-0.000906
2553.2264,-0.001099
2555.0901,-0.001231
2556.9538,-0.001027
2558.8174,-0.000890
2560.6811,-0.001121
2562.5448,-0.001348
2564.4084,-0.001431
2566.2721,-0.001421
2568.1358,-0.001148
2569.9994,-0.001113
2571.8631,-0.001191
2573.7268,-0.000933
2575.5904,-0.000650
2577.4541,-0.000570
2579.3178,-0.000808
2581.1815,-0.000710
2583.0451,-0.000480
2584.9088,-0.001007
2586.7725,-0.001434
2588.6361,-0.001211
2590.4998,-0.001052
2592.3635,-0.000989
2594.2271,-0.001051
2596.0908,-0.001208
2597.9545,-0.001234
2599.8181,-0.001171
2601.6818,-0.001049
2603.5455,-0.000903
2605.4091,-0.000789
2607.2728,-0.000573
2609.1365,-0.000706
2611.0002,-0.001001
2612.8638,-0.000823
2614.7275,-0.000909
2616.5912,-0.001269
2618.4548,-0.001354
2620.3185,-0.001167
2622.1822,-0.000914
2624.0458,-0.000756
2625.9095,-0.000665
2627.7732,-0.000823
2629.6368,-0.001082
2631.5005,-0.001088
2633.3642,-0.001026
2635.2279,-0.001074
2637.0915,-0.001039
2638.9552,-0.000888
2640.8189,-0.000958
2642.6825,-0.001077
2644.5462,-0.001097
2646.4099,-0.001179
2648.2735,-0.001246
2650.1372,-0.001174
2652.0009,-0.001078
2653.8645,-0.001177
2655.7282,-0.001173
2657.5919,-0.001196
2659.4555,-0.001317
2661.3192,-0.001168
2663.1829,-0.001019
2665.0466,-0.000980
2666.9102,-0.001020
2668.7739,-0.001119
2670.6376,-0.001000
2672.5012,-0.001064
2674.3649,-0.001334
2676.2286,-0.001194
2678.0922,-0.001019
2679.9559,-0.001066
2681.8196,-0.001002
2683.6832,-0.000826
2685.5469,-0.000709
2687.4106,-0.000888
2689.2742,-0.001244
2691.1379,-0.001233
2693.0016,-0.000959
2694.8653,-0.000920
2696.7289,-0.000995
2698.5926,-0.000991
2700.4563,-0.001036
2702.3199,-0.000936
2704.1836,-0.000821
2706.0473,-0.001111
2707.9109,-0.001240
2709.7746,-0.000893
2711.6383,-0.000873
2713.5019,-0.001140
2715.3656,-0.001109
2717.2293,-0.001141
2719.0930,-0.001323
2720.9566,-0.001326
2722.8203,-0.001151
2724.6840,-0.000966
2726.5476,-0.000891
2728.4113,-0.000894
2730.2750,-0.000876
2732.1386,-0.000977
2734.0023,-0.001172
2735.8660,-0.001163
2737.7296,-0.001234
2739.5933,-0.001309
2741.4570,-0.001220
2743.3206,-0.001108
2745.1843,-0.000943
2747.0480,-0.001028
2748.9117,-0.001053
2750.7753,-0.000990
2752.6390,-0.001133
2754.5027,-0.001051
2756.3663,-0.000858
2758.2300,-0.001032
2760.0937,-0.000994
2761.9573,-0.000686
2763.8210,-0.000866
2765.6847,-0.001148
2767.5483,-0.001194
2769.4120,-0.001263
2771.2757,-0.001391
2773.1394,-0.001381
2775.0030,-0.001139
2776.8667,-0.000978
2778.7304,-0.000988
2780.5940,-0.000978
2782.4577,-0.000925
2784.3214,-0.001024
2786.1850,-0.001235
2788.0487,-0.001296
2789.9124,-0.001128
2791.7760,-0.001017
2793.6397,-0.001200
2795.5034,-0.001145
2797.3670,-0.000937
2799.2307,-0.000938
2801.0944,-0.000892
2802.9581,-0.000886
2804.8217,-0.001220
2806.6854,-0.001332
2808.5491,-0.001123
2810.4127,-0.001188
2812.2764,-0.001300
2814.1401,-0.001143
2816.0037,-0.000964
2817.8674,-0.001047
2819.7311,-0.001084
2821.5947,-0.001073
2823.4584,-0.001116
2825.3221,-0.000945
2827.1857,-0.000867
2829.0494,-0.001156
2830.9131,-0.001184
2832.7768,-0.000999
2834.6404,-0.001195
2836.5041,-0.001371
2838.3678,-0.001314
2840.2314,-0.001381
2842.0951,-0.001159
2843.9588,-0.000881
2845.8224,-0.001148
2847.6861,-0.001197
2849.5498,-0.000999
2851.4134,-0.001161
2853.2771,-0.001378
2855.1408,-0.001413
2857.0045,-0.001284
2858.8681,-0.001108
2860.7318,-0.001097
2862.5955,-0.001124
2864.4591,-0.001064
2866.3228,-0.001275
2868.1865,-0.001290
2870.0501,-0.000875
2871.9138,-0.000780
2873.7775,-0.000960
2875.6411,-0.001052
2877.5048,-0.001129
2879.3685,-0.001073
2881.2321,-0.001082
2883.0958,-0.001231
2884.9595,-0.001112
2886.8232,-0.000909
2888.6868,-0.000903
2890.5505,-0.001048
2892.4142,-0.001210
2894.2778,-0.000901
2896.1415,-0.000636
2898.0052,-0.000968
2899.8688,-0.000988
2901.7325,-0.000562
2903.5962,-0.000580
2905.4598,-0.001155
2907.3235,-0.001539
2909.1872,-0.001860
2911.0509,-0.001877
2912.9145,-0.001114
2914.7782,-0.000856
2916.6419,-0.000862
2918.5055,-0.000712
2920.3692,-0.000685
2922.2329,-0.000339
2924.0965,-0.000205
2925.9602,-0.000867
2927.8239,-0.001322
2929.6875,-0.001366
2931.5512,-0.001344
2933.4149,-0.000987
2935.2785,-0.000631
2937.1422,-0.000934
2939.0059,-0.001523
2940.8696,-0.001383
2942.7332,-0.000781
2944.5969,-0.000762
2946.4606,-0.000988
2948.3242,-0.000909
2950.1879,-0.000916
2952.0516,-0.000986
2953.9152,-0.001083
2955.7789,-0.001137
2957.6426,-0.001064
2959.5062,-0.000953
2961.3699,-0.000993
2963.2336,-0.001243
2965.0972,-0.001215
2966.9609,-0.001044
2968.8246,-0.001356
2970.6883,-0.001581
2972.5519,-0.001037
2974.4156,-0.000710
2976.2793,-0.000950
2978.1429,-0.001039
2980.0066,-0.001096
2981.8703,-0.000931
2983.7339,-0.000702
2985.5976,-0.001215
2987.4613,-0.001211
2989.3249,-0.000765
2991.1886,-0.000988
2993.0523,-0.001203
2994.9160,-0.000990
2996.7796,-0.001026
2998.6433,-0.000918
3000.5070,-0.000495
3002.3706,-0.000281
3004.2343,-0.000646
3006.0980,-0.000956
3007.9616,-0.001335
3009.8253,-0.001272
3011.6890,-0.001020
3013.5526,-0.001254
3015.4163,-0.001041
3017.2800,-0.000747
3019.1436,-0.000744
3021.0073,-0.000421
3022.8710,-0.000350
3024.7347,-0.000794
3026.5983,-0.001347
3028.4620,-0.001271
3030.3257,-0.000911
3032.1893,-0.000836
3034.0530,-0.000847
3035.9167,-0.000641
3037.7803,-0.000316
3039.6440,-0.000454
3041.5077,-0.000942
3043.3713,-0.001044
3045.2350,-0.000676
3047.0987,-0.000952
3048.9624,-0.001289
3050.8260,-0.001019
3052.6897,-0.001067
3054.5534,-0.001350
3056.4170,-0.001291
3058.2807,-0.001069
3060.1444,-0.000862
3062.0080,-0.000914
3063.8717,-0.000990
3065.7354,-0.001085
3067.5990,-0.001106
3069.4627,-0.000885
3071.3264,-0.000701
3073.1900,-0.000960
3075.0537,-0.001195
3076.9174,-0.000976
3078.7811,-0.000764
3080.6447,-0.000429
3082.5084,-0.000308
3084.3721,-0.000722
3086.2357,-0.000805
3088.0994,-0.000661
3089.9631,-0.000827
3091.8267,-0.001015
3093.6904,-0.000632
3095.5541,-0.000459
3097.4177,-0.000592
3099.2814,-0.000316
3101.1451,-0.000340
3103.0087,-0.000723
3104.8724,-0.001055
3106.7361,-0.000897
3108.5998,-0.000781
3110.4634,-0.001114
3112.3271,-0.001402
3114.1908,-0.001652
3116.0544,-0.001590
3117.9181,-0.001101
3119.7818,-0.001024
3121.6454,-0.001217
3123.5091,-0.001219
3125.3728,-0.000935
3127.2364,-0.000969
3129.1001,-0.001076
3130.9638,-0.000940
3132.8275,-0.001084
3134.6911,-0.001071
3136.5548,-0.000751
3138.4185,-0.000793
3140.2821,-0.001241
3142.1458,-0.001248
3144.0095,-0.000592
3145.8731,-0.000320
3147.7368,-0.000664
3149.6005,-0.000945
3151.4641,-0.000761
3153.3278,-0.000968
3155.1915,-0.001337
3157.0551,-0.001036
3158.9188,-0.001012
3160.7825,-0.001140
3162.6462,-0.001076
3164.5098,-0.001080
3166.3735,-0.000976
3168.2372,-0.000550
3170.1008,-0.000606
3171.9645,-0.001167
3173.8282,-0.001357
3175.6918,-0.001187
3177.5555,-0.001250
3179.4192,-0.001187
3181.2828,-0.001008
3183.1465,-0.000459
3185.0102,-0.000130
3186.8739,-0.000159
3188.7375,-0.000369
3190.6012,-0.000729
3192.4649,-0.000947
3194.3285,-0.000878
3196.1922,-0.000468
3198.0559,-0.000396
3199.9195,-0.000080
3201.7832,0.000070
3203.6469,-0.000954
3205.5105,-0.001447
3207.3742,-0.000805
3209.2379,-0.000481
3211.1015,-0.000657
3212.9652,-0.000417
3214.8289,-0.000615
3216.6926,-0.001164
3218.5562,-0.001016
3220.4199,-0.001076
3222.2836,-0.001224
3224.1472,-0.000407
3226.0109,-0.000191
3227.8746,-0.000845
3229.7382,-0.001293
3231.6019,-0.000599
3233.4656,0.000552
3235.3292,0.000030
3237.1929,-0.001268
3239.0566,-0.000798
3240.9202,-0.000172
3242.7839,-0.000121
3244.6476,-0.000533
3246.5113,-0.001568
3248.3749,-0.001402
3250.2386,-0.000380
3252.1023,-0.000355
3253.9659,-0.001074
3255.8296,-0.001252
3257.6933,-0.001139
3259.5569,-0.000896
3261.4206,-0.000211
3263.2843,-0.000181
3265.1479,-0.000566
3267.0116,-0.000232
3268.8753,0.000314
3270.7390,-0.000138
3272.6026,-0.000824
3274.4663,-0.000653
3276.3300,-0.000495
3278.1936,-0.000760
3280.0573,-0.001009
3281.9210,-0.001049
3283.7846,-0.000969
3285.6483,-0.000117
3287.5120,0.000051
3289.3756,-0.000598
3291.2393,-0.000713
3293.1030,-0.000413
3294.9666,-0.000133
3296.8303,-0.000696
3298.6940,-0.001233
3300.5577,-0.000492
3302.4213,-0.000152
3304.2850,-0.000554
3306.1487,-0.000941
3308.0123,-0.000892
3309.8760,-0.000532
3311.7397,-0.000208
3313.6033,0.000001
3315.4670,-0.000687
3317.3307,-0.001542
3319.1943,-0.001242
3321.0580,-0.001231
3322.9217,-0.001061
3324.7854,0.000219
3326.6490,0.000388
3328.5127,-0.000108
3330.3764,-0.000493
3332.2400,-0.000829
3334.1037,-0.000752
3335.9674,-0.001075
3337.8310,-0.001099
3339.6947,-0.001242
3341.5584,-0.001588
3343.4220,-0.000933
3345.2857,-0.000269
3347.1494,-0.000502
3349.0130,-0.001142
3350.8767,-0.000584
3352.7404,0.000680
3354.6041,0.000236
3356.4677,-0.000850
3358.3314,-0.000606
3360.1951,-0.000390
3362.0587,-0.000212
3363.9224,-0.000706
3365.7861,-0.000848
3367.6497,0.000579
3369.5134,0.001144
3371.3771,0.000251
3373.2407,-0.000397
3375.1044,-0.001095
3376.9681,-0.001186
3378.8317,-0.000723
3380.6954,-0.000482
3382.5591,0.000393
3384.4228,0.000813
3386.2864,0.000018
3388.1501,-0.000423
3390.0138,-0.000977
3391.8774,-0.001228
3393.7411,-0.000517
3395.6048,-0.000666
3397.4684,-0.001475
3399.3321,-0.001227
3401.1958,-0.000240
3403.0594,-0.000303
3404.9231,-0.000732
3406.7868,-0.000564
3408.6505,0.000170
3410.5141,-0.000086
3412.3778,-0.000340
3414.2415,-0.000110
3416.1051,-0.000715
3417.9688,-0.001649
3419.8325,-0.001231
3421.6961,0.000005
3423.5598,-0.000637
3425.4235,-0.001777
3427.2871,-0.002180
3429.1508,-0.001642
3431.0145,-0.000697
3432.8781,-0.000240
3434.7418,-0.000475
3436.6055,-0.000392
3438.4692,0.000535
3440.3328,0.000029
3442.1965,-0.000330
3444.0602,0.000691
3445.9238,0.000938
3447.7875,0.000250
3449.6512,-0.000709
3451.5148,-0.000390
3453.3785,-0.000993
3455.2422,-0.001591
3457.1058,-0.000805
3458.9695,0.000008
3460.8332,0.000385
3462.6969,0.000348
3464.5605,0.000525
3466.4242,0.000823
3468.2879,0.000491
3470.1515,-0.000109
3472.0152,-0.000120
3473.8789,-0.000236
3475.7425,-0.000390
3477.6062,-0.001257
3479.4699,-0.002190
3481.3335,-0.001143
3483.1972,0.000246
3485.0609,0.000558
3486.9245,-0.000833
3488.7882,-0.001964
3490.6519,-0.001182
3492.5156,0.000009
3494.3792,0.000023
3496.2429,-0.001001
3498.1066,-0.002191
3499.9702,-0.002058
3501.8339,-0.000380
3503.6976,0.000496
3505.5612,-0.000123
3507.4249,-0.000708
3509.2886,0.000143
3511.1522,0.000962
3513.0159,0.000267
3514.8796,-0.000483
3516.7432,-0.000681
3518.6069,-0.000932
3520.4706,-0.000834
3522.3343,0.000230
3524.1979,0.000226
3526.0616,0.000139
3527.9253,0.001035
3529.7889,0.000200
3531.6526,-0.000397
3533.5163,-0.000734
3535.3799,-0.000900
3537.2436,-0.000053
3539.1073,-0.000214
3540.9709,-0.000650
3542.8346,-0.000145
3544.6983,-0.000022
3546.5620,0.000231
3548.4256,0.000464
3550.2893,0.000987
3552.1530,0.001043
3554.0166,-0.000185
3555.8803,-0.000052
3557.7440,0.000228
3559.6076,-0.000204
3561.4713,0.000068
3563.3350,0.000549
3565.1986,0.000043
3567.0623,-0.000971
3568.9260,-0.001544
3570.7896,-0.001559
3572.6533,-0.000536
3574.5170,0.000419
3576.3807,0.000620
3578.2443,0.000148
3580.1080,-0.000208
3581.9717,-0.000070
3583.8353,0.000856
3585.6990,0.001509
3587.5627,0.000415
3589.4263,-0.000318
3591.2900,0.000820
3593.1537,0.000896
3595.0173,-0.000083
3596.8810,-0.000272
3598.7447,-0.000412
3600.6084,-0.000579
3602.4720,-0.000328
3604.3357,-0.000772
3606.1994,-0.000677
3608.0630,0.000205
3609.9267,0.000519
3611.7904,0.000263
3613.6540,-0.000256
3615.5177,-0.001036
3617.3814,-0.000689
3619.2450,0.000532
3621.1087,0.000123
3622.9724,-0.000575
3624.8360,-0.000154
3626.6997,0.000432
3628.5634,0.000592
3630.4271,-0.000339
3632.2907,-0.000517
3634.1544,-0.000818
3636.0181,-0.000941
3637.8817,-0.000561
3639.7454,-0.000732
3641.6091,-0.000449
3643.4727,0.000512
3645.3364,0.001206
3647.2001,0.000640
3649.0637,-0.000072
3650.9274,0.000237
3652.7911,0.000142
3654.6547,-0.000010
3656.5184,0.000056
3658.3821,-0.000245
3660.2458,-0.000119
3662.1094,-0.000120
3663.9731,-0.000417
3665.8368,-0.000177
3667.7004,-0.000103
3669.5641,0.000079
3671.4278,-0.000118
3673.2914,-0.000329
3675.1551,0.000980
3677.0188,0.001037
3678.8824,-0.000136
3680.7461,-0.000837
3682.6098,-0.000663
3684.4735,0.000147
3686.3371,0.000448
3688.2008,0.000217
3690.0645,-0.000561
3691.9281,-0.000293
3693.7918,-0.000234
3695.6555,-0.000491
3697.5191,-0.000069
3699.3828,0.000132
3701.2465,-0.000053
3703.1101,-0.000024
3704.9738,0.000141
3706.8375,-0.000101
3708.7011,-0.000306
3710.5648,0.000056
3712.4285,0.000211
3714.2922,0.000115
3716.1558,0.000037
3718.0195,0.000568
3719.8832,0.000885
3721.7468,0.000422
3723.6105,-0.000229
3725.4742,0.000049
3727.3378,0.000198
3729.2015,0.000053
3731.0652,0.000086
3732.9288,-0.000274
3734.7925,-0.000856
3736.6562,0.000045
3738.5199,0.000219
3740.3835,-0.000014
3742.2472,0.000153
3744.1109,0.000409
3745.9745,0.000563
3747.8382,0.000287
3749.7019,0.000586
3751.5655,0.000473
3753.4292,-0.000437
3755.2929,-0.000794
3757.1565,-0.000167
3759.0202,0.000356
3760.8839,0.000288
3762.7475,-0.000167
3764.6112,-0.000547
3766.4749,0.000044
3768.3386,0.000479
3770.2022,0.000427
3772.0659,0.000663
3773.9296,0.000305
3775.7932,-0.000436
3777.6569,-0.000073
3779.5206,0.000190
3781.3842,-0.000617
3783.2479,-0.000616
3785.1116,-0.000005
3786.9752,0.000077
3788.8389,-0.000095
3790.7026,0.000046
3792.5662,0.000069
3794.4299,-0.000177
3796.2936,-0.000053
3798.1573,0.000203
3800.0209,0.000340
3801.8846,0.000768
3803.7483,0.000536
3805.6119,0.000239
3807.4756,0.000345
3809.3393,-0.000215
3811.2029,-0.000267
3813.0666,-0.000030
3814.9303,0.000444
3816.7939,0.000304
3818.6576,0.000070
3820.5213,0.000957
3822.3850,0.000770
3824.2486,-0.000124
3826.1123,-0.000446
3827.9760,0.000072
3829.8396,0.000586
3831.7033,0.000266
3833.5670,-0.000105
3835.4306,-0.000155
3837.2943,0.000287
3839.1580,0.000258
3841.0216,-0.000174
3842.8853,0.000243
3844.7490,-0.000037
3846.6126,-0.000683
3848.4763,0.000205
3850.3400,0.001592
3852.2037,0.001308
3854.0673,-0.000078
3855.9310,0.000274
3857.7947,0.000897
3859.6583,0.000033
3861.5220,-0.000234
3863.3857,0.000282
3865.2493,-0.000060
3867.1130,0.000073
3868.9767,0.000591
3870.8403,0.000304
3872.7040,0.000453
3874.5677,0.000844
3876.4314,0.000412
3878.2950,-0.000317
3880.1587,-0.000640
3882.0224,-0.000793
3883.8860,-0.000393
3885.7497,0.000066
3887.6134,0.000369
3889.4770,0.000441
3891.3407,0.000364
3893.2044,0.000013
3895.0680,-0.000162
3896.9317,0.000596
3898.7954,0.001141
3900.6590,0.000423
3902.5227,-0.000155
3904.3864,0.000319
3906.2501,0.000145
3908.1137,-0.000553
3909.9774,-0.000379
3911.8411,0.000117
3913.7047,0.000516
3915.5684,0.000456
3917.4321,-0.000157
3919.2957,0.000009
3921.1594,0.000616
3923.0231,0.000032
3924.8867,-0.001127
3926.7504,-0.000705
3928.6141,0.000568
3930.4777,0.001155
3932.3414,0.000909
3934.2051,0.000744
3936.0688,0.000984
3937.9324,0.000485
3939.7961,0.000064
3941.6598,0.000404
3943.5234,0.000770
3945.3871,0.000355
3947.2508,-0.000007
3949.1144,-0.000461
3950.9781,-0.000135
3952.8418,0.000104
3954.7054,-0.000185
3956.5691,0.000602
3958.4328,0.001004
3960.2965,0.000243
3962.1601,-0.000421
3964.0238,-0.000565
3965.8875,-0.000433
3967.7511,-0.000446
3969.6148,-0.000122
3971.4785,0.000757
3973.3421,0.000603
3975.2058,0.000505
3977.0695,-0.000032
3978.9331,-0.000125
3980.7968,0.000047
3982.6605,0.000225
3984.5241,0.000578
3986.3878,0.001000
3988.2515,0.000967
3990.1152,0.000368
3991.9788,-0.000460
3993.8425,-0.000519
3995.7062,-0.000213
3997.5698,-0.000147
3999.4335,-0.000516
4001.2972,-0.000238
4003.1608,0.000166
4005.0245,0.000220
4006.8882,-0.000235
4008.7518,-0.000806
4010.6155,-0.000157
4012.4792,0.000355
4014.3429,0.000259
4016.2065,0.000447
4018.0702,0.000441
4019.9339,0.000538
4021.7975,0.000433
4023.6612,0.000059
4025.5249,-0.000010
4027.3885,0.000054
4029.2522,-0.000013
4031.1159,0.000093
4032.9795,0.000468
4034.8432,0.000331
4036.7069,0.000349
4038.5705,0.000643
4040.4342,0.000076
4042.2979,-0.000192
4044.1616,0.000460
4046.0252,0.000596
4047.8889,0.000415
4049.7526,0.000176
4051.6162,-0.000006
4053.4799,-0.000143
4055.3436,-0.000239
4057.2072,-0.000590
4059.0709,-0.000149
4060.9346,0.000278
4062.7982,-0.000493
4064.6619,-0.000396
4066.5256,0.000039
4068.3892,0.000190
4070.2529,0.000665
4072.1166,0.000336
4073.9803,-0.000363
4075.8439,0.000250
4077.7076,0.000375
4079.5713,-0.000176
4081.4349,-0.000420
4083.2986,-0.000412
4085.1623,-0.000411
4087.0259,0.000062
4088.8896,0.000569
4090.7533,0.000712
4092.6169,0.000921
4094.4806,0.001010
4096.3443,0.000867
4098.2080,0.000474
4100.0716,0.000302
